1591891200640:9499660:点歌 葬歌
TIME0:0ONLINE44607
1591891205089:9167767:纯姐：臭和DD你选一个
1591891206506:249617516:晚安
1591891208481:37969983:睡是不可能睡的，等着4点ps5发布会
1591891211311:372305519:♥谢谢雪之下雪乃ちゃん成功登船，成为纯姐的1个舰长啦♥(°∀
1591891211311:36266865:我D得没有你多
1591891212431:372305519:°)ﾉ666~♥谢谢雪之下雪乃ちゃん成功登船，成为纯姐的1个
1591891213682:372305519:舰长啦♥(°∀°)ﾉ666~
1591891216045:372305519:✿哇，ULTRAMAN-LIPE来啦，谢谢关注纯姐，么么哒✿
1591891222408:24311275:艹，这歌！！！
1591891222408:338411818:明天还要打你呢，会好好休息的嗷
1591891230309:9499660:白龙马
TIME0:0ONLINE44607
1591891232594:191057153:？不对劲
1591891234532:37969983:艹
1591891236757:76445914:草
1591891239677:37969983:你不对劲
1591891239677:36266865:好听
1591891247652:36266865:哈哈哈哈哈
1591891249337:80471979:?
1591891254606:11104012:哎？什么跑偏了？
1591891254606:9167767:？？？
1591891254606:36266865:哈哈哈哈哈哈
1591891259742:36266865:哈哈哈哈哈
TIME0:1ONLINE45507
1591891264385:102352069:好听好听好听
1591891265423:20575210:额,纯姐怎么拿了纯哥的帐号来直播了
1591891268121:102352069:天
1591891268121:36266865:D都D
1591891277411:102352069:西游记
1591891280354:80471979:你再骂
1591891289501:762428:西去
TIME0:1ONLINE45507
1591891295413:102352069:Dd额
1591891298615:9167767:西区
1591891306059:372305519:✿哇，花魁_SAGA来啦，谢谢关注纯姐，么么哒✿
1591891314011:60221391:嘤嘤嘤
TIME0:2ONLINE45034
1591891322161:191057153:草生了出来
1591891323781:424404133:哈哈哈哈哈哈
1591891335061:12385350:哈哈哈哈哈
1591891335061:24311275:别骂了别骂了
1591891336276:36266865:哈哈哈哈哈
1591891338525:9499660:让dd西去？升天了？
1591891343992:1500913:好好好
1591891345828:12385350:香dd们联合起来 打败臭dd
1591891345828:11104012:点歌 封刀不为峥嵘！
1591891345828:49463272:木纯好
1591891347646:28947407:没有，已经断了
1591891348675:31444663:哇，倒着的纯姐awsl
TIME0:2ONLINE45034
1591891353981:49463272:才来
1591891355195:1500913:我去西天
1591891356653:9167767:已经打结了
1591891358828:333684122:颈椎没了
1591891360113:11104012:点歌 封刀不为峥嵘
1591891366941:372305519:谢谢飘Lhgxc送来了1个冰阔落，纯姐喝冰阔落~
1591891374633:9499660:点歌 葬歌
1591891381093:36266865:喜欢纯姐的可以点关注，注意弹幕礼仪，文明用词
1591891381093:338411818:只听了欠揍
TIME0:3ONLINE44556
1591891382413:151559400:晚安纯姐，明天7点上班
1591891386566:338411818:前奏....
1591891388100:18054531:第一次看直播，为啥up是倒过来的
1591891404237:338411818:六月的歌，模型，自我介绍
1591891407174:338411818:太多了
TIME0:3ONLINE44556
1591891420655:9499660:纯半首
1591891421659:372305519:谢谢飘Lhgxc送来了10个冰阔落，纯姐喝冰阔落~
1591891426280:372305519:✿哇，黄昏Ly_来啦，谢谢关注纯姐，么么哒✿
1591891435001:36266865:(=・ω・=)(=・ω・=)(=・ω・=)(=・ω・=)
1591891436229:372305519:(=・ω・=)(=・ω・=)(=・ω・=)(=・ω・=)
1591891437510:102352069:额
1591891440616:338411818:半首吧
TIME0:4ONLINE44121
1591891445209:102352069:现在还能点歌？
1591891462690:11104012:掰掰！！
1591891466065:9499660:古风？
1591891471425:12385350:纯姐晚安 
TIME0:4ONLINE44121
1591891473658:516425178:再见~纯姐
1591891476083:102352069:LOL水友赛吗？
1591891476084:36266865:哈哈哈
1591891479920:13956172:触摸屏对战
1591891483042:102352069:晚安
1591891485215:37969983:(;¬_¬)
1591891488692:191057153:拜拜
1591891491445:2983404:晚安
1591891492833:37969983:晚安晚安晚安晚安
1591891495641:11104012:？？？
1591891497408:12808306:纯姐\^O^/晚安(ﾟДﾟ)ﾉ
1591891499081:12740569:怎么倒立了
TIME0:5ONLINE43764
1591891506308:12385350:纯倒了 纯倒了
1591891507481:36266865:喜欢纯姐的可以点关注
1591891509229:13956172:《从bbox到吹口哨》
1591891513409:9499660:因为纯姐太大了
1591891515467:372305519:✿哇，bili_84085033297来啦，谢谢关注纯姐，么
1591891516927:352137489:暗示水友赛被吊着锤？
1591891516927:372305519:么哒✿
1591891530367:37969983:脑 髓 吸 食
TIME0:5ONLINE43764
1591891547965:12740569:反重力头发
1591891547965:249617516:晚安
TIME0:6ONLINE43326
TIME0:6ONLINE43326
1591891606750:370404018:纯洁怎么在上面
1591891619058:51822709:以后会有一大堆总督的
TIME0:7ONLINE42844
1591891622403:370404018:纯姐倒过来了
1591891628462:37969983:脑 髓 吸 食
1591891628462:24311275:么么哒
1591891629542:184382:么么哒
1591891631717:372305519:谢谢超V学园_林伊Eli送来了1个B坷垃，可以佩戴纯姐的勋章
1591891631717:28852244:纯姐晚安
1591891631717:108254171:8888888
1591891633515:372305519:哟~
1591891634894:37969983:你不要主动贴过来啊
1591891637661:12385350:纯姐晚安
1591891639825:39826796:mua
1591891641246:102352069:晚安
1591891641246:51822709:安安安
1591891641246:36266865:拜拜，纯姐
1591891641246:9499660:感觉要吐痰的样子
1591891642527:435373997:害怕
1591891642528:12808306:早点休息
1591891645917:184382:我被吸出来一个红印
1591891647957:25398517:晚安
1591891651626:372305519:超V学园_林伊Eli将他的4个么么哒送过来，亲一口纯姐就跑~
TIME0:7ONLINE42844
1591891653006:8266407:纯姐晚安！
1591891653006:372305519:❀新来的小伙伴，欢迎来到纯姐的直播间，点关注不迷路❀
1591891654096:474593910:哈哈哈哈
1591891656434:29116297:完了，我脑髓没了
1591891656434:474593910:么么么么么么么
1591891659705:372305519:超V学园_林伊Eli将他的1个么么哒送过来，亲一口纯姐就跑~
1591891661628:8266407:我去睡啦！
1591891668989:24311275:哈哈哈
1591891671572:15045093:堪比拔罐般的吻
1591891672945:474593910:嗯嗯，性感的纯姐
1591891677463:25229616:今天新衣服啊
1591891678558:474593910:一起睡！
1591891678559:149760288:晚安
1591891678559:456584977:！倒立纯姐？！
1591891681925:37969983:我家房子还蛮大的.jpg
TIME0:8ONLINE42378
1591891683583:51822709:纯姐居然真有女粉啊。。除了布丁
1591891691566:203190886:？
1591891692914:474593910:哈哈哈哈哈哈哈
1591891692914:372305519:超V学园_林伊Eli将他的7个么么哒送过来，亲一口纯姐就跑~
1591891693996:191057153:再么又吹不出口哨
1591891695001:1346034:还可以帮你登dua郎哦~
1591891700836:102352069:晚安
1591891706625:474593910:难道不是靠 性感的胸部赚钱吗
1591891711244:474593910:居然靠双手
1591891712404:269865493:？？？反着的？
1591891712403:474593910:orz
TIME0:8ONLINE42378
1591891714267:51822709:奥是林伊啊。纯姐果然没女粉
1591891721791:828794:大别墅（SHU）
1591891721791:128660139:？？？
1591891726887:456584977:纯姐吃桃子，我也吃桃子，我和纯姐贴贴
1591891726887:108254171:8888888
1591891729486:9499660:纯姐拜拜
1591891729486:51822709:安安安
1591891733691:456584977:纯姐晚安
1591891735042:474593910:晚安晚安
1591891735042:12385350:明天见了 纯姐88
1591891742175:9345046:晚安
1591891742175:51822709:安安安
TIME0:9ONLINE42144
1591891744664:102352069:林伊小姐姐好
1591891744664:36266865:纯姐晚安
1591891746407:7758327:晚安啦，纯姐~
1591891747790:128660139:晚安
1591891747790:36266865:拜拜
1591891749695:102352069:晚安
1591891754222:1346034:纯姐晚安
1591891756219:128755230:倒掉(*´◐∀◐`*)
1591891768254:10079045:纯姐你从天花板上下来啊纯姐
TIME0:9ONLINE42144
1591891773587:102352069:咋了？
1591891780103:2961623:？？？
1591891784217:456584977:小心别摔着(=・ω・=)
1591891788934:36266865:晚安
1591891788934:366114944:晚安
1591891791440:435373997:拜拜
1591891791440:128755230:纯姐吃人啦
1591891799321:2961623:吃人啦
TIME0:10ONLINE41702
1591891823305:474593910:纯姐看来是在天花板上睡觉了
1591891826396:474593910:这就是强者吗
1591891829431:474593910:爱了爱了
TIME0:10ONLINE41702
1591892026178:372305519:✿哇，一个路人人来啦，谢谢关注纯姐，么么哒✿
1591892206721:372305519:✿哇，jAj77016来啦，谢谢关注纯姐，么么哒✿
1591892296518:372305519:✿哇，岳某来啦，谢谢关注纯姐，么么哒✿
1591893196875:372305519:✿哇，isi松鼠来啦，谢谢关注纯姐，么么哒✿
1591893496779:372305519:✿哇，幻梦景来啦，谢谢关注纯姐，么么哒✿
1591893707298:372305519:✿哇，发型为秃来啦，谢谢关注纯姐，么么哒✿
1591894697825:372305519:✿哇，bili_47503624126来啦，谢谢关注纯姐，么
1591894699408:372305519:么哒✿
1591894757655:372305519:✿哇，年轻气盛的所长来啦，谢谢关注纯姐，么么哒✿
1591896048557:372305519:✿哇，irisqwq来啦，谢谢关注纯姐，么么哒✿
1591922104839:372305519:❀新来的小伙伴，欢迎来到纯姐的直播间，点关注不迷路❀
1591923801354:372305519:谢谢碳酸二甲酯赠送的80个辣条(*＞◡＜*)
1591924203614:372305519:谢谢木糖纯的感谢姬赠送的290个辣条(*＞◡＜*)
1591924254553:372305519:谢谢碳酸二甲酯赠送的9个辣条(*＞◡＜*)
1591927987370:372305519:✿哇，紫心凌来啦，谢谢关注纯姐，么么哒✿
1591928985421:372305519:谢谢木糖纯的感谢姬赠送的126个辣条(*＞◡＜*)
1591930238485:372305519:✿哇，大老弟应天雄来啦，谢谢关注纯姐，么么哒✿
1591930839033:372305519:✿哇，彼岸無渡来啦，谢谢关注纯姐，么么哒✿
1591930988408:372305519:谢谢碳酸二甲酯赠送的92个辣条(*＞◡＜*)
1591933360227:372305519:✿哇，霜森寒风夜吹雪来啦，谢谢关注纯姐，么么哒✿
1591933720411:372305519:✿哇，Echo_KeA来啦，谢谢关注纯姐，么么哒✿
1591934467723:372305519:谢谢木糖纯的感谢姬赠送的129个辣条(*＞◡＜*)
1591934771110:372305519:✿哇，摸骨風的鱼来啦，谢谢关注纯姐，么么哒✿
1591935041321:372305519:✿哇，费多尔-冯-愽克来啦，谢谢关注纯姐，么么哒✿
1591935581520:372305519:✿哇，瑶瑶爱辅助来啦，谢谢关注纯姐，么么哒✿
1591935911644:372305519:✿哇，GN-0100R来啦，谢谢关注纯姐，么么哒✿
1591936421811:372305519:✿哇，良渊Cthaat来啦，谢谢关注纯姐，么么哒✿
1591938180062:372305519:谢谢碳酸二甲酯赠送的52个辣条(*＞◡＜*)
1591938374584:372305519:谢谢怨曾セ赠送的12个辣条(*＞◡＜*)
1591938383865:372305519:谢谢怨曾セ赠送的20个辣条(*＞◡＜*)
1591939153026:372305519:✿哇，菜鸡lyz在线找死、叶懒人、梦得美丽、时透旡一郎、Ne
1591939154604:372305519:I_son来啦，谢谢关注纯姐，么么哒✿
1591939213078:372305519:✿哇，後庭院来啦，谢谢关注纯姐，么么哒✿
1591939273254:372305519:✿哇，可爱的少女-末小灵来啦，谢谢关注纯姐，么么哒✿
1591939783567:372305519:✿哇，星尘迷蒙来啦，谢谢关注纯姐，么么哒✿
1591939843344:372305519:✿哇，三千城来啦，谢谢关注纯姐，么么哒✿
1591941713380:372305519:谢谢一番喜喵赠送的1个辣条(*＞◡＜*)
1591941733956:372305519:✿哇，jensen-hang、Vapor雪否、-游离之光-、
1591941735531:372305519:Aukurumi、度阴胡撼山来啦，谢谢关注纯姐，么么哒✿
1591943445157:372305519:✿哇，崩壊の加藤恵来啦，谢谢关注纯姐，么么哒✿
1591944405589:372305519:✿哇，nvifvf来啦，谢谢关注纯姐，么么哒✿
1591944765810:372305519:✿哇，Kirito丶桐人君来啦，谢谢关注纯姐，么么哒✿
1591944855433:372305519:✿哇，唐小冬来啦，谢谢关注纯姐，么么哒✿
1591945095762:372305519:✿哇，音洛天初来啦，谢谢关注纯姐，么么哒✿
1591945382162:372305519:谢谢碳酸二甲酯赠送的245个辣条(*＞◡＜*)
1591947166553:372305519:✿哇，大萧何其无辜、会飞的老崔、桥本环超永不当人、亿锤定音ん
1591947168145:372305519:、Sodran来啦，谢谢关注纯姐，么么哒✿
1591947226627:372305519:✿哇，夏川蓝莓来啦，谢谢关注纯姐，么么哒✿
1591948832124:372305519:谢谢無瞳彤桐树赠送的1个辣条(*＞◡＜*)
1591949868259:372305519:✿哇，1409612661、小城、末日时去吃烤肉吧、Cele
1591949988265:372305519:✿哇，那片属于蔚蓝色的海洋来啦，谢谢关注纯姐，么么哒✿
1591950348239:372305519:✿哇，一令企来啦，谢谢关注纯姐，么么哒✿
1591950858851:372305519:✿哇，贝爷だ来啦，谢谢关注纯姐，么么哒✿
1591952013919:372305519:谢谢没有情缘的沈大人赠送的6个辣条(*＞◡＜*)
1591952689599:372305519:✿哇，今夕Rzo、红花油可治病、橡樹之心、-腐草为萤、Aki
1591952691201:372305519:rClound来啦，谢谢关注纯姐，么么哒✿
1591952869714:372305519:✿哇，安染染a来啦，谢谢关注纯姐，么么哒✿
1591953440258:372305519:✿哇，幻无灵来啦，谢谢关注纯姐，么么哒✿
1591953560270:372305519:✿哇，我道纯阳来啦，谢谢关注纯姐，么么哒✿
1591961333940:372305519:❀新来的小伙伴，欢迎来到纯姐的直播间，点关注不迷路❀
1591961456679:372305519:谢谢木糖纯的感谢姬赠送给纯姐的762个辣条(*＞◡＜*)
1591961513514:372305519:✿哇，望丶南安、除法分配律来啦，谢谢关注纯姐，么么哒✿
1591961903967:372305519:✿哇，擁有夢想的閑魚来啦，谢谢关注纯姐，么么哒✿
1591962053778:372305519:✿哇，情默倾心来啦，谢谢关注纯姐，么么哒✿
1591963247019:372305519:谢谢無瞳彤桐树赠送给纯姐的69个辣条(*＞◡＜*)
1591963344527:372305519:✿哇，晧轩君来啦，谢谢关注纯姐，么么哒✿
1591963524293:372305519:✿哇，安定辞来啦，谢谢关注纯姐，么么哒✿
1591963674513:372305519:✿哇，站着的咸鱼来啦，谢谢关注纯姐，么么哒✿
1591963974663:372305519:✿哇，蓝兰之魂来啦，谢谢关注纯姐，么么哒✿
1591964154910:372305519:✿哇，微尔莉特-伊芙伽登来啦，谢谢关注纯姐，么么哒✿
1591964515573:372305519:✿哇，哑舍iii来啦，谢谢关注纯姐，么么哒✿
1591964605476:372305519:✿哇，SoSo_rrow来啦，谢谢关注纯姐，么么哒✿
1591964625273:372305519:谢谢星垂夜幕赠送给纯姐的1043个辣条(*＞◡＜*)
1591964636110:372305519:✿哇，Asyut来啦，谢谢关注纯姐，么么哒✿
1591964984517:372305519:谢谢繁星野赠送给纯姐的28个辣条(*＞◡＜*)
1591965775649:372305519:✿哇，机村音Kimura-On来啦，谢谢关注纯姐，么么哒✿
1591965928950:372305519:谢谢木离星炎赠送给纯姐的8个辣条(*＞◡＜*)
1591965955943:372305519:✿哇，鸣鸣命命来啦，谢谢关注纯姐，么么哒✿
1591966016137:372305519:✿哇，落汐影来啦，谢谢关注纯姐，么么哒✿
1591966076111:372305519:✿哇，侯艺驰1来啦，谢谢关注纯姐，么么哒✿
1591966166378:372305519:✿哇，无无不知咕咕咕来啦，谢谢关注纯姐，么么哒✿
1591966185848:372305519:谢谢繁星野赠送给纯姐的66个辣条(*＞◡＜*)
1591966299070:372305519:谢谢放开快乐水赠送给纯姐的34个辣条(*＞◡＜*)
1591966376253:372305519:✿哇，Last海绵宝宝王者荣耀来啦，谢谢关注纯姐，么么哒✿
1591966592641:372305519:谢谢君之旧事将行于何处赠送给纯姐的50个辣条(*＞◡＜*)
1591966642061:96944653:待机ing
1591966766300:372305519:✿哇，Harry天使的右翼来啦，谢谢关注纯姐，么么哒✿
1591966770807:11385302:待机中，等待暴打纯姐
1591966851817:96944653:可还行
1591967066445:372305519:✿哇，Linnux_R来啦，谢谢关注纯姐，么么哒✿
1591967076253:372305519:谢谢碳酸二甲酯赠送给纯姐的490个辣条(*＞◡＜*)
1591967077840:372305519:谢谢君之旧事将行于何处赠送给纯姐的51个辣条(*＞◡＜*)
1591967126700:372305519:✿哇，螺蛳粉味猪肘来啦，谢谢关注纯姐，么么哒✿
1591967191294:372305519:谢谢红星照我行赠送给纯姐的25个辣条(*＞◡＜*)
1591967252241:372305519:谢谢瓦努赠送给纯姐的7个辣条(*＞◡＜*)
1591967294693:372305519:谢谢抽年吗-年萌死了赠送给纯姐的39个辣条(*＞◡＜*)
1591967328818:102352069:等啊等
1591967393761:372305519:谢谢君之旧事将行于何处赠送给纯姐的42个辣条(*＞◡＜*)
1591967407942:372305519:谢谢繁星野赠送给纯姐的114个辣条(*＞◡＜*)
1591967476601:60664437:每日
1591967478901:60664437:迟到
1591967556978:396057874:纯姐已经迟到12分【习惯】
1591967571369:396057874:爷习以为常
1591967580150:60664437:2333
1591967583236:37815472:昨天是半小时
1591967593205:60664437:这就离谱
1591967601560:372305519:谢谢碳酸二甲酯赠送给纯姐的24个辣条(*＞◡＜*)
1591967606169:372305519:✿哇，张翼展来啦，谢谢关注纯姐，么么哒✿
1591967608403:372305519:谢谢碳酸二甲酯赠送给纯姐的8个辣条(*＞◡＜*)
1591967619829:102352069:不急慢慢等
1591967636731:372305519:✿哇，花开花败花满庭来啦，谢谢关注纯姐，么么哒✿
1591967683946:396057874:纯姐已经迟到14分
1591967710140:11385302:估计有事吧
1591967725685:372305519:谢谢代君_DaiKun赠送给纯姐的74个辣条(*＞◡＜*)
1591967835347:102352069:习惯了
1591967863224:372305519:谢谢胖喵三兄弟赠送给纯姐的4个辣条(*＞◡＜*)
1591967909180:516425178:你们知道吗，B站现在能看西游记了(･∀･
1591967938534:62057447:迟到20分钟，纯姐的传统艺能（￣▽￣）
1591967968824:37815472:直播间标题改了
1591967986407:516425178:来了
1591967995387:62057447:???
1591967995387:37815472:来了
1591968005504:164005646:蛤？
1591968005504:396057874:终于来了
1591968007500:372305519:谢谢路西斯赠送给纯姐的21个辣条(*＞◡＜*)
1591968009248:396057874:看什么呢
1591968015431:293792769:有点吓人
1591968017313:448086273:纯姐晚上好
1591968018824:372305519:谢谢紫月青风赠送给纯姐的20个辣条(*＞◡＜*)
1591968020064:372305519:谢谢红星照我行赠送给纯姐的215个辣条(*＞◡＜*)
1591968021567:60664437:哦哦哦
1591968022594:11385302:什么时候可以打纯姐
1591968022594:60664437:来了来了
1591968024124:96944653:来了
1591968025569:52490916:结束了？
1591968031598:402522133:来了
1591968033037:36266865:纯姐晚上好
1591968038609:11732903:纯姐晚上好！！
1591968043223:96944653:晚上好纯姐
TIME21:20ONLINE2554
1591968047474:338411818:冲
1591968051326:306116892:晚上好
1591968053223:36266865:喜欢纯姐的可以点关注，注意弹幕礼仪，文明用词
1591968056641:372305519:✿哇，莫风凡水来啦，谢谢关注纯姐，么么哒✿
1591968058566:96944653:冲冲冲
1591968067170:338411818:给你倒杯Mojito
1591968069318:372305519:♥谢谢没有情缘的沈大人、消亡时间、二人同体的假面骑士、艾叔之
1591968071563:372305519:力、白晨汨罗、红星小学之手、fasisk、路白不是卤菜赠送给
1591968071563:36266865:哈哈哈
1591968073202:372305519:纯姐的好多礼物(*^▽^*)♥
1591968073202:402522133:纯姐有总督了，青结
TIME21:21ONLINE2554
1591968077991:456584977:纯姐晚上好
1591968084988:372305519:谢谢故人叹牵丝戏赠送给纯姐的31个辣条(*＞◡＜*)
1591968086589:372305519:谢谢无冥666赠送给纯姐的21个辣条(*＞◡＜*)
1591968094719:372305519:谢谢消亡时间赠送给纯姐的80个辣条(*＞◡＜*)
1591968099065:12808306:看完歌姬我就过来了，
1591968103942:12808306:纯姐晚上好
TIME21:21ONLINE3795
1591968114476:36266865:DD们加油，要保护好纯姐（暴打纯姐）
1591968115641:338411818:确实，纯姐只是个少不经事的十八岁少女
1591968117026:96944653:我就知道
1591968117026:372305519:✿哇，三级星下、无冥666来啦，谢谢关注纯姐，么么哒✿
1591968117026:438471457:哈哈哈哈哈哈
1591968123833:174143838:我现在仅播放声音观听，内容纯靠脑补
1591968130719:372305519:谢谢凉下桑赠送给纯姐的20个辣条(*＞◡＜*)
1591968132339:372305519:谢谢村头大叔赠送给纯姐的8个辣条(*＞◡＜*)
1591968135258:36266865:喜欢纯姐的可以点关注，注意弹幕礼仪，文明用词
1591968136500:60664437:没事
TIME21:22ONLINE3795
1591968138449:60664437:鼠标嘛
1591968138449:438471457:奇妙的约会
1591968139671:37969983:啊这
1591968143473:396057874:鼠标砸了吧
1591968144764:338411818:没事，今晚想办法给你搞个五杀
1591968144764:60664437:砸了就好
1591968149503:372305519:谢谢冉冉寒星赠送给纯姐的22个辣条(*＞◡＜*)
1591968149503:396057874:嘿嘿
1591968150774:372305519:谢谢Mr惜桦赠送给纯姐的38个辣条(*＞◡＜*)
1591968154133:60664437:我已经砸了一亿个
1591968155843:37969983:我不是菜，是卡，卡你懂吗.jpg
1591968160134:372305519:谢谢我想了一个昵称赠送给纯姐的31个辣条(*＞◡＜*)
1591968160134:11385302:去会员购的魔力赏里抽一个啊
1591968160134:306116892:没事我鼠标也坏了
TIME21:22ONLINE6831
1591968170575:293792769:可能重装鼠标驱动就好了吧
1591968174518:21849836:纯姐的新衣服～好球
1591968174518:396057874:空调太低感冒了现在在吃感冒药
1591968178270:60664437:鼠标得买硬的
1591968179955:36266865:所以DD们还不快点给纯姐买新鼠标
1591968185055:60664437:不然老是得换
1591968188574:10184538:怕不是鼠标自带的两连点射功能
1591968188575:222731821:我鼠标今天也坏了
1591968194209:372305519:谢谢陈年打铁赠送给纯姐的23个辣条(*＞◡＜*)
1591968194209:338411818:确实确实确实
1591968195814:372305519:谢谢凉下桑赠送给纯姐的43个辣条(*＞◡＜*)
TIME21:23ONLINE6831
1591968215255:396057874:我无限鼠标中键坏了
1591968215255:37969983:务必请给我，我拿去当连点器用
1591968222398:372305519:♥谢谢烈焰战神719、客心翼、8761087、__忆梦__、
1591968223960:372305519:凉下桑赠送给纯姐的好多礼物(*^▽^*)♥
TIME21:23ONLINE9671
1591968228149:396057874:我准备存钱买新的
1591968231347:372305519:谢谢高价回收十八岁美少女赠送给纯姐的5个辣条(*＞◡＜*)
1591968236637:20661450:早上好
1591968241517:279234705:纯姐这是什么歌？
1591968245722:338411818:鼠标得十八块包邮才好
1591968251121:102352069:等啊等
1591968251121:37969983:1000射速的法玛斯，打谁谁怀孕
1591968255749:10184538:我的就带二连点和三连点功能，经常误触
1591968255749:396057874:我要练手速PVP了
TIME21:24ONLINE9671
1591968263262:20114949:英菲克鼠标
1591968263262:372305519:♥谢谢我不管迪昂是我的、莜桃、冰影雪翼、白海灵梦酱、崩壞琉璃
1591968264396:306116892:鼠标右键按坏了6个了
1591968264396:372305519:、我永远喜欢木糖纯-、诗-间赠送给纯姐的好多礼物(*^▽^*
1591968266245:338411818:左下角有歌名嗷
1591968266245:372305519:)♥
1591968268487:372305519:❀新来的小伙伴，欢迎来到纯姐的直播间，点关注不迷路❀
1591968269975:174143838:今天玩不了了，你少了一员大将(敌人)
1591968275923:91284304:晚上好
1591968279212:396057874:早上好说明不在国内
1591968282977:37969983:啊这
TIME21:24ONLINE12485
1591968290787:396057874:我们已经是晚安了
1591968295959:37969983:我自己罗技的鼠标我感觉没啥毛病
1591968298466:91284304:哈哈哈
1591968300912:456584977:懂了懂了
1591968304316:338411818:有布丁就可以了
1591968307493:417239522:神特么电竞之魂哈哈哈哈
1591968307494:33177282:纯姐晚上好(°∀°)ﾉ
1591968315170:306116892:我在 我照着你
1591968315170:21849836:歪比歪比，歪比巴卜
TIME21:25ONLINE12485
1591968318287:279234705:玩荒野大乱斗
1591968318287:62057447:我来
1591968318287:11385302:纯姐，你的背景能给我们来一份吗？
1591968326973:39539406:我罩着你
1591968329820:396057874:登~登登登登~登登登登登登
1591968329820:10184538:可以开心
1591968332140:62057447:我老猛男了
1591968332140:29116297:噔 噔 咚
1591968344523:494611983:冒个泡
TIME21:25ONLINE15302
1591968353238:494611983:溜了呐
1591968372029:11385302:1111111
1591968374746:338411818:这里居然有罗老师的粉丝？
1591968374746:306116892:拍好了
1591968376573:37969983:不是我菜，是我卡，卡你懂吗.jpg
1591968376573:96944653:11111
TIME21:26ONLINE15302
1591968378329:91284304:做文文静静的女孩子不好吗
1591968381060:11385302:11111111
1591968384541:456584977:雨女无瓜
1591968385966:88285485:今天纯姐的胸显得格外大
1591968387135:62057447:是的
1591968387135:11385302:1111111
1591968389813:396057874:见
1591968389813:396057874:手速慢去练我·现在对键盘摸到就知道是那个
1591968395629:279234705:群里都上号了
1591968395630:102352069:来了来了
1591968397352:36266865:我今天不参加了
1591968401745:62057447:准备杀纯姐或者被纯姐杀
1591968402984:396057874:难说
1591968405603:338411818:我会罩着你，赌上犬来八荒的名字
TIME21:26ONLINE18140
1591968409966:95147068:要来了吗？
1591968413930:22017278:好
1591968416433:36266865:喜欢纯姐的可以点关注，注意弹幕礼仪，文明用词
1591968420991:396057874:我要去我的世界练PVP技术了有几年没打了
1591968423223:2487947:开好房间等DD
1591968428362:10184538:鹅卵石还行
1591968433125:37969983:你那个二连点拿去打fps当连点器岂不美哉
1591968433125:29116297:所以今天是打啥
1591968435910:396057874:先看完直播再去打PVP
TIME21:27ONLINE18140
1591968453746:102352069:额
1591968466204:396057874:吓死了
TIME21:27ONLINE21188
1591968469401:36266865:喜欢纯姐的可以点关注，注意弹幕礼仪，文明用词
1591968470800:396057874:狗头
1591968494508:37969983:233333
1591968494508:10184538:哈哈哈哈哈哈
TIME21:28ONLINE21188
1591968498128:396057874:哈哈
1591968505165:366114944:hhhhh
1591968505165:37969983:暴 打 大 仙 牛
1591968506241:50993384:草
1591968506241:396057874:集体群殴纯姐
1591968514116:396057874:欧拉欧拉欧拉欧拉欧拉
TIME21:28ONLINE24246
1591968529762:396057874:木大木大木大木大木大木大
1591968531223:372305519:❀新来的小伙伴，欢迎来到纯姐的直播间，点关注不迷路❀
1591968531224:926765:纯姐晚上好
1591968540389:95147068:他们是想去对面保护你
1591968545615:36266865:喜欢纯姐的可以点关注，注意弹幕礼仪，文明用词
1591968550670:21849836:纯姐好棒(｀・ω・´)我好惹
TIME21:29ONLINE24246
1591968559439:338411818:纯姐老折磨怪了，太折磨人了
1591968560624:102352069:大部分都想去的是对面
1591968560624:396057874:梅开二度
1591968562223:53494550:直播没掉所以不是网络的问题
1591968566621:174143838:我什么都看不见(捂脸哭)
1591968566621:306116892:不去对面怎么给你送人头？
1591968566621:372305519:✿哇，无闵来啦，谢谢关注纯姐，么么哒✿
1591968567692:487341196:人怪
1591968580946:37969983:啊这，你不对劲
1591968582629:36266865:(=・ω・=)(=・ω・=)
1591968585845:396057874:大部分技术好的要想去纯姐对面欧拉
TIME21:29ONLINE27304
1591968596513:238663366:找若若看看风水
1591968596513:372305519:✿哇，好活有赏来啦，谢谢关注纯姐，么么哒✿
1591968600805:487341196:那个区啊
1591968604323:151559400:⁄(⁄ ⁄•⁄ω⁄•⁄ ⁄)⁄.
1591968607248:53494550:英雄联盟更新后基本打两把之后会掉线
1591968609731:36266865:喜欢纯姐的可以戴个纯姐的牌子，一个B克拉或者投二十个硬币
1591968613466:102352069:加油
1591968614529:151559400:我听说了，他们要乱杀
1591968614529:10966199:纯姐晚上好
TIME21:30ONLINE27304
1591968623928:151559400:危  纯姐  危
1591968623928:300551734:水友痛扁主播大会
1591968626824:372305519:✿哇，人不中Er枉少年来啦，谢谢关注纯姐，么么哒✿
1591968628064:203190886:杠铃般的笑声
1591968634520:396057874:捉鸡
1591968636341:36266865:喜欢纯姐的可以点关注，注意弹幕礼仪，文明用词
1591968638330:487341196:哪个区的啊啊啊啊
1591968643773:21849836:黑铁二也太真实了吧
1591968643773:33177282:水友出气大赛(°∀°)ﾉ
TIME21:30ONLINE30346
1591968649876:516425178:果然很大(=・ω・=)
1591968651777:434788093:hhhh
1591968651778:319825500:说
1591968655380:203190886:右上角有大区
TIME21:31ONLINE30346
1591968678586:396057874:哈哈哈
1591968689283:10966199:？？？
1591968692312:10966199:这名字
1591968694517:11385302:我卡了
1591968701621:314061499:纯姐你看我看到路白去对面的时候我就过来了
1591968705893:396057874:对面准备进行对纯姐木大木大木大木大木大
1591968705893:10966199:瓦努日常被嫌弃
1591968707823:11385302:要不然我一定进去打你
TIME21:31ONLINE33373
TIME21:32ONLINE33373
1591968743008:203190886:记得开大
1591968749319:396057874:耐力？？？
1591968752872:3882811:纯姐有总督了？恭喜ヾ ^_^♪
1591968764642:338411818:红丸背刺我
1591968767867:7758327:纯姐，晚上好呀~
TIME21:32ONLINE33564
1591968769395:338411818:可恶
1591968772395:338411818:岂可修
1591968785436:62057447:一进去就是纯姐对面
1591968788062:96944653:加油纯姐打爆他们
1591968789261:174143838:都有谁啊，我只能听声音(苦笑)
1591968790895:96944653:加油
1591968793714:338411818:没事，我是内鬼
1591968793714:10966199:都是金钱的力量
1591968796096:314061499:总督牌face
1591968797453:102352069:加油加油
1591968797454:37969983:大家对你的总督的关注越来越高了
TIME21:33ONLINE33564
1591968808290:20114949:我去白嫖点辣条给纯姐
1591968818709:62057447:暗杀纯姐走起!
TIME21:33ONLINE33810
1591968828395:82367678:纯姐的为什么把黑色的方便袋套在衣服上
1591968828395:314061499:可以调鼠标灵敏度的吧
1591968828395:487341196:调一下灵敏度啊
1591968829810:60664437:调一手灵敏度
1591968833982:174143838:纯姐玩的什么
1591968835681:82367678:不会热吗
1591968852295:60664437:还能换键盘的
1591968852799:279234705:广东是不是起台风了？
1591968854153:102352069:加油
TIME21:34ONLINE33810
1591968874918:60664437:神了
1591968883725:36266865:喜欢纯姐的可以点关注，注意弹幕礼仪，文明用词
TIME21:34ONLINE34095
1591968891587:8517978:广东的台风快来了
1591968895797:396057874:坐等纯姐被锤爆
1591968902475:338411818:可以在游戏里继续调灵敏度啊
1591968904432:102352069:好慢
1591968913618:200473283:好大呀
TIME21:35ONLINE34095
1591968918497:178142244:盖伦
1591968921658:200473283:怎么这么大
1591968926532:338411818:我掉了...芜湖
1591968931398:37969983:你是拿小霸王学习机打的游戏嘛
TIME21:35ONLINE34353
1591968962054:178142244:怎么没有盖伦奇怪了
TIME21:36ONLINE34353
1591968995251:10966199:来猜猜这把纯姐能那几个dd头
TIME21:36ONLINE34639
1591969023423:338411818:我重启电脑了，这波我当内鬼了
1591969026924:338411818:芜湖
1591969035275:37969983:巅 峰 科 比
TIME21:37ONLINE34639
1591969047671:372305519:✿哇，jhl1014来啦，谢谢关注纯姐，么么哒✿
1591969047671:203190886:666666
1591969057029:10966199:K头怪
1591969065581:102352069:加油加油
TIME21:37ONLINE34907
1591969082699:33177282:要优雅(°∀°)ﾉ
1591969082699:102352069:骄傲还是可以的
1591969097866:11385302:火男不太行啊
TIME21:38ONLINE34907
1591969108304:102352069:对面技术很强啊
1591969121789:102352069:哈哈哈哈哈
TIME21:38ONLINE35064
1591969129973:475358810:666
1591969131349:372305519:❀新来的小伙伴，欢迎来到纯姐的直播间，点关注不迷路❀
1591969135691:102352069:可以保留的
1591969139139:338411818:没事，红丸铁男可以一打五的
1591969141766:102352069:只不过啊很难
1591969155057:10966199:K头无敌！
TIME21:39ONLINE35064
1591969166277:102352069:不一定哦
1591969182588:37969983:老科比了
TIME21:39ONLINE35243
1591969205340:338411818:来了来了，船长来了，别标记我了
1591969210264:102352069:太惨了
TIME21:40ONLINE35243
1591969222714:5724016:火男爆炸
1591969227391:102352069:纯姐太难了，哈哈哈
1591969228613:10355085:早A就死了
1591969236204:338411818:我这都没上线呢
1591969240282:52359679:技术性掉线
1591969247562:10966199:华生你被开除了
TIME21:40ONLINE34983
1591969257881:372305519:✿哇，风神少女文、三也三也三也来啦，谢谢关注纯姐，么么哒✿
1591969265855:102352069:我不参加
1591969278447:507135308:盖伦出来一下
TIME21:41ONLINE34983
1591969280599:21304133:你的大只有你的脚低才可以放
1591969283403:36266865:喜欢纯姐的可以点关注，注意弹幕礼仪，文明用词
1591969286096:102352069:报仇好难
1591969287351:21304133:而且没有
1591969292111:37969983:报仇（白给）
TIME21:41ONLINE34741
1591969316100:102352069:火男伤害OK的
1591969327792:46414860:纯姐有QQ粉丝群吗(=・ω・=)
1591969331882:123812453:0.0
TIME21:42ONLINE34741
1591969343780:102352069:有粉丝群的
1591969347874:372305519:✿哇，LanguorousHastur来啦，谢谢关注纯姐，么
1591969349437:91432665:来了来了
1591969349437:372305519:么哒✿
1591969356707:10355085:我的意思是尽量开大尽量换血
TIME21:42ONLINE35013
1591969369370:203190886:6666
1591969372437:102352069:哈哈哈哈哈哈
1591969374933:21304133:woc
1591969376443:102352069:哈哈哈哈哈哈哈
1591969377475:372305519:✿哇，bili_57063811238来啦，谢谢关注纯姐，么
1591969379300:372305519:么哒✿
1591969379300:102352069:太惨了
1591969385620:46414860:群号是多少啊
1591969391192:372305519:谢谢SoSo_rrow送来了1个B坷垃，可以佩戴纯姐的勋章哟
1591969392778:372305519:~
1591969394409:10966199:火男
1591969396240:46414860:看见了
TIME21:43ONLINE35013
1591969402148:21304133:这就是纯姐的嘲讽啊
1591969402149:37969983:D D 的 执 著
1591969406557:102352069:太惨了
1591969422153:522129856:铁男太猛了
1591969425836:21304133:自带嘲讽
1591969428645:10966199:铁男牛逼
TIME21:43ONLINE35315
1591969439414:37969983:这铁憨憨肥登了得嘛
1591969444428:321601194:不是叫幽冥铁凯吗
1591969444428:522129856:嘲讽天赋点满了
1591969451099:21304133:debuff
1591969451099:102352069:火男好强
1591969455123:37969983:不是叫铁憨憨嘛
1591969458317:522129856:以前叫金属大师
TIME21:44ONLINE35315
1591969470325:203190886:铁男出山了
1591969471889:98659710:铁男真猛(=・ω・=)
TIME21:44ONLINE35517
1591969494646:102352069:哈哈哈加油
1591969499375:102352069:太好玩了
1591969505286:273112742:妹子是纯姐吗(=・ω・=)
TIME21:45ONLINE35517
1591969522569:21304133:主w的人才啊
1591969536744:102352069:哈哈哈哈哈哈哈
TIME21:45ONLINE35757
1591969560940:10966199:纯姐大乱斗打野
1591969560940:21304133:谁叫的主我的啊
1591969575947:10355085:这铁男是真的顶
1591969579328:11732903:纯姐，我洗完澡回来啦
TIME21:46ONLINE35757
1591969582965:522129856:腰子白给啊
1591969586058:21304133:？0.0？？
1591969601625:21304133:大
1591969604643:102352069:可爱
1591969606091:90644213:饱了
1591969607135:629709:传火
TIME21:46ONLINE35963
1591969609770:273112742:纯姐太强辣（doge）
1591969612989:10966199:接大招啊你
1591969612989:21304133:哈哈哈哈
1591969614218:102352069:太可爱了
1591969614218:86374720:传火
1591969617542:10355085:不闪现金克丝能活
1591969618625:522129856:大了原地等死吗
1591969623100:37969983:恁就是Ash One？
1591969624389:257522609:强还是纯姐强
1591969624389:25950364:被锤啦
1591969626621:21304133:这首打不溜啊
1591969634726:102352069:这局要稳输啊
TIME21:47ONLINE35963
1591969646379:102352069:只要对面不蹦对面稳赢
1591969667418:71538707:纯姐又在线挨打
TIME21:47ONLINE36099
1591969687952:102352069:为啥崩了
1591969691163:522129856:然而队友跑出去了
1591969691163:220124440:哈哈哈哈哈哈哈
1591969695875:102352069:难道我最开光了
1591969697041:220124440:这个奥拉夫很强
1591969698823:203190886:铁男五杀没了
TIME21:48ONLINE36099
1591969707564:372305519:✿哇，ChoriChary来啦，谢谢关注纯姐，么么哒✿
1591969709537:5646324:纯姐刚刚那个大放的真好
1591969712623:36266865:喜欢纯姐的可以点关注，注意弹幕礼仪，文明用词
1591969715020:235718470:纯姐这成年模式又回来了
1591969728499:12808306:纯姐刚刚那个大放的真好
TIME21:48ONLINE36291
1591969731350:372305519:❀新来的小伙伴，欢迎来到纯姐的直播间，点关注不迷路❀
1591969740943:10966199:老传火了
1591969754990:220124440:你有输出吗
1591969757574:11385302:纯姐，你的E技能可以减速的
1591969757574:102352069:对面真的稳赢啊
TIME21:49ONLINE36291
1591969763698:102352069:技术都不错啊
1591969775449:522129856:没有
1591969777095:321601194:这腰子脆的和纸一样
1591969784137:10355085:开大保队友吧
TIME21:49ONLINE36440
1591969792499:102352069:太会欺负纯姐了
1591969795299:10966199:2/1-->4/8.。。。
1591969796562:62057447:(⌒▽⌒)(⌒▽⌒)(⌒▽⌒)
1591969797925:220124440:针灸术吗
1591969807195:102352069:干的漂亮给你个鸡腿
1591969811797:1443522:蹲一个
1591969811797:62057447:没错就是我
1591969815906:71538707:怎么可以这么欺负我纯姐！！！
TIME21:50ONLINE36440
1591969827099:249943569:自闭了
1591969830266:21304133:然后就扎你屁股，这个寡妇啊
1591969830266:220124440:哈哈哈哈哈哈哈哈
1591969836486:220124440:带坏蛋
1591969837741:21304133:哈哈哈哈哈
1591969847674:102352069:哈哈哈哈哈哈哈
1591969849009:10966199:肉装输出
TIME21:50ONLINE36558
1591969854599:10966199:肉装AD吸
1591969854599:102352069:要是小鱼在就更好了
1591969855975:37969983:被 害 妄 想 症
1591969864826:27287473:i了i了，这语气
1591969866295:102352069:绝对抓的纯姐贼惨
1591969870704:22556707:纯姐有总督了Σ( ￣□￣||)
1591969874637:1443522:ohhhhhhhh
1591969879295:11385302:是啊
TIME21:51ONLINE36558
1591969880587:21304133:哈哈哈
1591969882790:37969983:OHHHHHHHHHHHH
1591969882790:29116297:ohhhhhhhhhhhhhhhhhh
1591969886411:42506020:我来了，我没了。
1591969886411:102352069:哇哦
1591969886411:21304133:可以不亏
1591969889857:366114944:。。。。。。
1591969889857:321601194:居然换了一个
1591969893209:102352069:铁男不亏
1591969895330:11385302:一个DD上的
1591969897368:37969983:万军从中单杀火男
1591969899341:102352069:铁男不亏啊
TIME21:51ONLINE36694
1591969912341:1443522:万军丛中取敌将首级
1591969915048:220124440:实力一换一
1591969928962:10966199:注意草丛
1591969933274:21304133:出羊刀
1591969933274:102352069:被寡妇打出阴影了
1591969937726:629347:哟 啥时候的新衣服啊...
1591969937726:21304133:这样好玩
TIME21:52ONLINE36694
1591969948019:372305519:✿哇，橡胶小人来啦，谢谢关注纯姐，么么哒✿
TIME21:52ONLINE36892
1591969980737:102352069:寡妇可以真的可以
1591969985399:102352069:哥喜欢
1591969988189:1443522:保护我方纯姐
1591969992571:21304133:额可以这个寡妇
1591969994765:62057447:我
1591969995747:21304133:666666
TIME21:53ONLINE36892
1591970003536:98659710:我
1591970006055:8123805:小本本喜加一
1591970007577:372305519:✿哇，Meaqua精神支柱来啦，谢谢关注纯姐，么么哒✿
1591970007578:10966199:学技术（记小本本）
1591970011139:5724016:不要回答不要回答不要回答
1591970012148:522129856:火男出了个水银？
1591970016326:102352069:哈哈哈哈哈哈哈
1591970020821:11385302:硬钓鱼
1591970022068:10184538:把DD骗出来斩首哈哈哈哈
1591970028560:37969983:就嗯钓
TIME21:53ONLINE37057
1591970030782:43216798:看到结局了
1591970032140:29116297:这波，这波是直钩钓鱼
1591970038339:102352069:不就是小本本被
1591970040551:11732903:小本子已经掏出来了
1591970042645:220124440:小本本来了
1591970042645:43216798:老钓鱼了
1591970044525:102352069:我挺想上的
1591970056658:8123805:小本本：我准备好了
TIME21:54ONLINE37057
1591970073274:629709:贾克斯
1591970073274:1443522:ohhhhhhhhhh
1591970076059:102352069:想上小本本的我
1591970078466:249943569:加克斯，金油！
1591970078466:21304133:6666
1591970078466:10184538:贾克斯
1591970080129:27287473:r扣了
1591970080129:10966199:》？？？？
1591970082375:35834239:无人生还
1591970082375:102352069:突然发现永远上不了
1591970084760:21304133:直接5换无啊
TIME21:54ONLINE37224
1591970090681:169483543:我依稀记得纯姐的寡妇，可以修改现实让纯姐
1591970090681:629709:特兰克斯
1591970093040:372305519:谢谢诗怀雅大小姐赠送给纯姐的1个吃瓜(*＞◡＜*)
1591970102694:321601194:出复活甲吧
1591970108476:10355085:纯洁你破败呢
1591970114032:169483543:饮魔刀
1591970116741:21304133:羊刀啊
TIME21:55ONLINE37224
1591970121467:102352069:哈哈哈哈哈哈
1591970132777:372305519:谢谢白又宅赠送给纯姐的10个吃瓜(*＞◡＜*)
1591970140450:5724016:大乱斗禁止复活甲
1591970140451:102352069:惨啊
1591970146634:102352069:我好心疼啊
TIME21:55ONLINE37392
1591970157262:372305519:谢谢白又宅送来了1个B坷垃，可以佩戴纯姐的勋章哟~
1591970158841:372305519:✿哇，烧烧Rrr来啦，谢谢关注纯姐，么么哒✿
1591970160787:291304810:性感纯姐在线被虐
1591970160787:102352069:好心疼啊
1591970179506:174076482:一进来纯姐就黑白屏了
TIME21:56ONLINE37392
1591970185947:102352069:可怜的纯姐摸摸头
1591970187637:9499660:最爱环节
1591970187638:372305519:✿哇，B站欠我一个亿来啦，谢谢关注纯姐，么么哒✿
1591970188917:62057447:我寡妇20把
1591970188917:174076482:而且还输了
1591970191989:10966199:下一把我们是冠军！
1591970191989:21304133:可怜啊
1591970191990:102352069:不哭不哭
1591970195357:29116297:胜利（幻视
1591970196790:102352069:哈哈哈哈哈哈哈
TIME21:56ONLINE37568
1591970212956:169483543:经典
1591970220848:102352069:那个刚才那一局寡妇是谁
1591970229320:169483543:传世经典
1591970233504:629709:随机比较有悬念
1591970236320:102352069:我想给你加个鸡腿，请出来一下
1591970237777:9499660:随机拼人气
TIME21:57ONLINE37568
1591970246769:174076482:不开吧，纯姐又被打爆了
1591970253837:102352069:不气不气
1591970255146:9499660:不会的跟队友换啊
1591970262212:291304810:自选的纯姐死的更惨
TIME21:57ONLINE37696
1591970272601:102352069:咋了！
1591970272601:169483543:有一说一开自选恨不得选5个g
1591970277622:102352069:一惊一乍的
1591970279733:169483543:盖伦
1591970284912:7758327:难过的吃了起来
1591970284913:926765:纯姐在吃什么吗
1591970292037:102352069:去就去了，这局赢了就行
1591970293254:62057447:手慢了，可惜
TIME21:58ONLINE37696
1591970309270:62057447:不然还能再杀一次纯姐
1591970312333:102352069:没事没事能赢
1591970319887:34733550:鸟人
1591970320916:522129856:飞得挺快的
1591970326812:102352069:小姐姐好漂亮请问处对象吗？
1591970326812:9499660:射手好，有位移的
1591970330313:321601194:对面盖伦了
1591970330313:372305519:❀新来的小伙伴，欢迎来到纯姐的直播间，点关注不迷路❀
TIME21:58ONLINE37910
1591970335368:24472285:出肉主W
1591970337607:300551734:盖伦卧槽
1591970341608:62057447:是我
1591970344905:102352069:看来真是d中人了
1591970344905:62057447:....
1591970347958:291304810:盖伦啊
1591970350631:29116297:有致盲，不亏
1591970351797:338411818:纯姐你为啥天天吃玉米鸭
1591970355457:11385302:我是盖伦
1591970358682:926765:包装纸声音很明显的
1591970360933:169483543:传世经典
1591970360933:96944653:哦豁
TIME21:59ONLINE37910
1591970363025:11385302:纯姐开心嘛
1591970363026:338411818:每次你都偷偷的吃
1591970366734:5724016:纯姐粉丝都是机器人
1591970368483:372305519:✿哇，Summer冰霜、could_FTH来啦，谢谢关注纯姐
1591970368484:300551734:纯姐的恐惧登场了
1591970370061:372305519:，么么哒✿
1591970371792:9499660:纯姐，等下出物穿
1591970373623:220124440:哦豁
1591970373623:8266407:纯姐危  对面盖伦
1591970380127:11385302:20个左右
1591970380127:220124440:大德玛来了
1591970381314:629709:1个？
1591970385994:291304810:纯姐怕了吧
1591970387665:24472285:三个估计
1591970387665:10966199:一生之敌
TIME21:59ONLINE38048
1591970394893:102352069:盖伦好样的
1591970397594:31527589:德玛西亚！！！！
1591970397594:73394172:危
1591970399533:102352069:嘎嘎嘎嘎嘎嘎
1591970400853:291304810:宿命的决战
1591970408481:102352069:瓦努多收几个人头
1591970418660:291304810:德玛西亚之力
1591970418660:522129856:石头人加盖伦糟了糟了
1591970420874:169483543:建议盖伦x整6把羊刀
1591970420874:35521598:游戏可以输 纯姐必须死。jpg
TIME22:0ONLINE38048
1591970429530:102352069:我喜欢纯姐用的女英雄小姐姐
1591970438146:9499660:纯姐这边没前排啊，要跪
1591970445982:62057447:盖伦本伦
1591970445982:11385302:没法解释
1591970449767:338411818:运气如此，随机会连周免一起的
TIME22:0ONLINE38099
1591970455078:38905266:亚索
1591970456367:321601194:对面石头人机器人这把输出环境堪忧啊
1591970456368:11385302:可能这就是命吧
1591970457524:37969983:企业及理解
1591970460827:102352069:太漂亮了，小姐姐有男朋友吗？我单身
1591970461889:96944653:运气问题
1591970469188:220124440:石头盖伦，这把要起飞了
1591970475915:291304810:没事窥屏的各位应该都是看纯姐躺地下的瞬间
1591970480075:102352069:瓦努估计是运气问题吧
TIME22:1ONLINE38099
1591970490338:102352069:八神你改名了？
1591970501828:29116297:开盘了开盘了
1591970503404:522129856:八神纯？
TIME22:1ONLINE38156
1591970511638:169483543:说实话，盖伦雪球这阵容一冲就散
1591970525273:366114944:盲猜纯姐被盖伦追着叫妈妈
1591970531774:102352069:好了好了没事没事
TIME22:2ONLINE38156
1591970542973:291304810:让纯姐享受哲学吧
1591970544654:35521598:又是盖伦
1591970546586:522129856:为啥纯姐随到这么多次AD
1591970551792:35521598:纯姐危
1591970556069:38905266:好开
1591970557424:102352069:这局不是赢就是输
1591970565064:36266865:喜欢纯姐的可以点关注，注意弹幕礼仪，文明用词
1591970567783:291304810:纯姐出肉吧
TIME22:2ONLINE38223
1591970580057:10355085:我猜纯姐想玩蒙多
1591970586785:102352069:纯姐你的队友可不赖啊
1591970594961:102352069:技术都很不错的
TIME22:3ONLINE38223
1591970618834:321601194:这把就看卡萨丁大哥了
1591970623455:9499660:纯姐，你也是ai
TIME22:3ONLINE38321
1591970638365:372305519:✿哇，笔影墨痕来啦，谢谢关注纯姐，么么哒✿
1591970639528:102352069:哈哈哈哈哈哈
1591970641774:291304810:ai何苦为难ai
1591970654392:169483543:看船长和卡萨丁
1591970654392:102352069:路白放放水吧
1591970658083:10966199:不是开通舰长吗
1591970660207:208766476:晚上好
TIME22:4ONLINE38321
1591970665385:522129856:E
1591970668914:57500882:e
TIME22:4ONLINE38414
1591970693012:25310996:纯姐什么时候有的新衣服('◇'｀)
1591970698644:372305519:✿哇，深黑平方来啦，谢谢关注纯姐，么么哒✿
1591970708664:10966199:无E凡
1591970714152:102352069:没毛病
TIME22:5ONLINE38414
1591970724310:102352069:逃跑纯姐绝对是最强王者
1591970724310:319107716:干啥啥不行，逃跑第一名。
1591970724310:169483543:经典
1591970732937:37969983:经典
1591970737467:416106921:下饭
1591970742764:220124440:干啥啥不行，该给第一名
1591970744465:62057447:杀纯姐一次点赞一次
1591970751496:11379562:???
TIME22:5ONLINE38459
1591970762972:522129856:下什么？
1591970780515:9499660:纯姐长没用，你要物穿才能打
TIME22:6ONLINE38459
1591970790807:102352069:没事别作死啊
1591970800276:4041074:致命点盐
1591970800277:300551734:6666666
1591970802298:102352069:加油加油没事的摸摸头
TIME22:6ONLINE38436
1591970822222:291304810:怕死纯姐
TIME22:7ONLINE38436
1591970850089:300551734:打谁？五五开？
1591970850089:25310996:你的不是致盲，只是缩小视野
1591970859513:10966199:改不了了
1591970859514:102352069:加油
1591970866559:926765:木糖怂
TIME22:7ONLINE38450
1591970875359:21326063:你这个是近视不是致盲
1591970875359:15522877:下次纯姐什么时候有约
1591970889557:102352069:欢迎小永远
1591970890763:37969983:这盖伦怎么没心动女声
TIME22:8ONLINE38450
1591970908103:522129856:高仿？
1591970921729:102352069:搞错了不是小永远名字也太像了吧
1591970926148:21326063:轮子妈人人！
1591970931311:372305519:❀新来的小伙伴，欢迎来到纯姐的直播间，点关注不迷路❀
TIME22:8ONLINE38444
1591970938362:522129856:一个S一个W
1591970938362:372305519:✿哇，一件沙雕来啦，谢谢关注纯姐，么么哒✿
1591970941578:102352069:高仿好强啊
1591970951366:522129856:哈哈哈哈
TIME22:9ONLINE38444
1591970966762:15522877:想看纯姐有约想了一个月
1591970966762:9499660:是哪个服啊？
1591970971096:25310996:为啥我感觉纯姐的声音好像和以前不一样_(
1591970971096:8700118:爱了爱了纯姐
1591970971096:102352069:不已经崩了
1591970971096:45362881:好奶
1591970976688:522129856:电一
TIME22:9ONLINE38421
1591970996139:102352069:纯姐的声音一直都没变啊
1591971007325:15522877:我是永远酱钦定的高仿
1591971012567:37969983:巅 峰 科 比
1591971016955:291304810:不是声音不一样时纯姐放飞自我了
1591971016955:8700118:又疯一个
1591971018131:10355085:科比
TIME22:10ONLINE38421
1591971025789:102352069:高仿牛
1591971047706:21326063:ap石头哈哈
1591971050816:27287473:DD：我整个人都是你的
TIME22:10ONLINE38441
1591971052609:102352069:别出来别出来
1591971057881:29180882:危
1591971060295:29116297:开始了，姜太公附体哦
1591971062486:62057447:小本本?
1591971067434:812730:勾引
1591971068652:319107716:危
1591971070790:10355085:小本本
1591971070790:37969983:木 太 公
1591971077424:366114944:纯姐老钓鱼了
1591971079310:522129856:光速回家
1591971079310:7320578:主播是黑店百地？
1591971081284:29116297:这波啊，这波是闪现勾引上单开团
TIME22:11ONLINE38441
1591971083867:291304810:无能狂怒
1591971088226:21326063:求学，指拉黑
TIME22:11ONLINE38446
1591971127954:9499660:至少这波纯姐没怂啊
1591971129597:199609955:新皮肤！
TIME22:12ONLINE38446
1591971158776:397239859:乱杀
1591971166208:220124440:哈哈哈哈哈哈哈
TIME22:12ONLINE38456
1591971177289:102352069:哈哈哈哈哈
1591971191150:35603959:怂了亿下
TIME22:13ONLINE38456
1591971213733:522129856:趋吉避凶
1591971213733:10355085:这时候一Q半血吧
1591971232566:36266865:喜欢纯姐的可以点关注，注意弹幕礼仪，文明用词
TIME22:13ONLINE38481
1591971235999:9499660:纯姐要是有的话，就不会被石头大了
TIME22:14ONLINE38481
1591971267528:522129856:卡萨丁：纯姐你上我收割
1591971292384:37969983:《针 对》
TIME22:14ONLINE38491
1591971293591:29180882:建议石头自首
1591971293591:36266865:喜欢纯姐的可以戴个纯姐的牌子，一个B克拉或者投二十个硬币
1591971300484:23666304:电影直播间？
1591971309894:36266865:喜欢纯姐的可以点关注，注意弹幕礼仪，文明用词
1591971316462:21326063:是jojo
1591971319769:9321256:这只鸟好大！
TIME22:15ONLINE38491
1591971324568:36266865:反正不是我
1591971324568:9499660:撞墙对胸不好
1591971329202:62057447:纯姐我有个更好玩的英雄，你想见见吗？
1591971331433:522129856:白给
1591971332782:400639819:嘿嘿
1591971339985:62057447:嘿嘿嘿
1591971341439:3755077:？
1591971343971:17582597:好 抬走
1591971345025:36266865:光速送人头
1591971348035:283193282:？
1591971349654:11032704:我来啦，我没啦
1591971349654:812730:你为什么冲动啊
1591971349654:128536837:我来了（来送了）
TIME22:15ONLINE38546
1591971355396:300551734:我来送死了
1591971355396:9499660:生死看淡不服就干
1591971361435:36266865:喜欢纯姐的可以点关注，注意弹幕礼仪，文明用词
1591971368260:220124440:h哈哈哈哈哈哈哈哈哈哈哈哈哈、
1591971368260:9499660:不能
1591971368260:29180882:卡萨丁追着石头杀哈哈哈哈
1591971375633:812730:太爱DD了，见到就扑了上去
1591971378576:52451882:不能
1591971379925:53503003:不要送了射手
1591971381205:522129856:10-20？
TIME22:16ONLINE38546
1591971403969:522129856:成功害死队友哈哈哈哈
1591971406257:36266865:哈哈哈哈
1591971410809:128536837:疯狂白给
TIME22:16ONLINE38558
1591971417497:36266865:纯姐白给
1591971421983:36266865:喜欢纯姐的可以点关注，注意弹幕礼仪，文明用词
1591971428792:3755077:再送六个人头哈哈哈哈
1591971432983:283193282:不要扎堆啊
1591971432983:9499660:纯姐，算了算了
1591971435509:522129856:出个夜之锋刃
TIME22:17ONLINE38558
1591971459674:321601194:出一个夜之锋刃他们就不好开你了
TIME22:17ONLINE38608
1591971482367:108254171:来看纯姐受苦了
1591971484928:36266865:哈哈哈哈
1591971496596:36266865:喜欢纯姐的可以点关注，注意弹幕礼仪，文明用词
TIME22:18ONLINE38608
1591971531425:372305519:❀新来的小伙伴，欢迎来到纯姐的直播间，点关注不迷路❀
TIME22:18ONLINE38606
1591971540112:37969983:《这 局 要 赢》
1591971541309:36266865:喜欢纯姐的可以戴个纯姐的牌子，一个B克拉或者投二十个硬币
1591971543314:321601194:出夜之锋刃啊
1591971554006:21326063:饮魔刀，夜之锋刃
1591971555785:22164740:夜之锋刃 AD版面纱
1591971559358:22164740:不香吗
1591971561862:29180882:夜之锋刃啊
1591971561862:522129856:夜之锋刃也有盾
TIME22:19ONLINE38606
1591971566309:43434569:夜之锋刃
1591971568254:37969983:啊这
1591971568254:372305519:✿哇，l凌海来啦，谢谢关注纯姐，么么哒✿
1591971569719:67882034:出夜之锋刃
1591971569719:1934242:夜之锋刃
1591971591037:8154476:记的十字镐合成夜之锋刃
TIME22:19ONLINE38558
1591971610369:522129856:哈哈哈哈哈
1591971613581:21304133:有大开大
1591971616167:36266865:哈哈哈哈
1591971619602:67882034:皮'一下很开心
1591971622576:158414874:这，，，
1591971622577:36266865:喜欢纯姐的可以点关注，注意弹幕礼仪，文明用词
TIME22:20ONLINE38558
1591971624372:62057447:好配合
1591971629743:108254171:纯姐永远可以畏惧盖伦
1591971629744:158414874:太可怜了，蛤蛤蛤蛤蛤蛤蛤
1591971642396:62057447:纯姐＝两个q
1591971649549:522129856:在免费回城的边缘疯狂试探
TIME22:20ONLINE38542
1591971654640:62057447:hhh
1591971670476:9499660:明明是疯狂购物
TIME22:21ONLINE38542
1591971683645:36266865:纯姐加油
1591971686155:102352069:哈哈哈，
1591971693733:102352069:要赢了
1591971697968:102352069:噢耶
1591971709335:102352069:别怕啊
1591971711339:366114944:哈哈哈哈哈
TIME22:21ONLINE38526
1591971721869:102352069:拆塔啊
1591971725006:453370417:大家早啊
1591971727084:46929820:挨打局
1591971728471:36266865:石头疯狂找纯姐
1591971739924:102352069:赢了好样的
TIME22:22ONLINE38526
1591971746664:36266865:喜欢纯姐的可以点关注，注意弹幕礼仪，文明用词
1591971753343:102352069:对面有盖伦还能赢很强
1591971760718:522129856:闪现火箭腰带R
1591971765675:300551734:你的队友才是真的难
1591971768656:372305519:谢谢东方的魔兽送来了1个打榜，周星为纯姐爆灯日夜不分~
1591971770228:102352069:路白强
1591971770228:321601194:应该裸夜之锋刃的
1591971771522:67882034:闪现大招，就是怼你(〜￣△￣)〜
TIME22:22ONLINE38541
1591971774131:338411818:轮子妈c，我混
1591971781583:338411818:这卡萨丁不太行
1591971781583:629709:我再也不怕盖伦啦
1591971785955:102352069:真的不怕盖伦了吗？
1591971788076:36266865:喜欢纯姐的可以戴个纯姐的牌子，一个B克拉或者投二十个硬币
1591971794138:926765:她膨胀了
1591971795301:102352069:瓦努加油在来个盖伦
1591971795301:415512689:盖伦？九折？
TIME22:23ONLINE38541
1591971804789:21304133:什么区啊
1591971806909:102352069:暴打纯姐
1591971809649:14021060:《已经没有什么好怕的了》
1591971817131:102352069:这简直膨胀了
1591971819319:522129856:电一
1591971822005:98659710:一区
1591971832907:21304133:膨胀拉啊
TIME22:23ONLINE38533
1591971839109:67882034:纯姐飘了啊
1591971840836:102352069:大区是电信一
1591971840836:36266865:喜欢纯姐的可以点关注，注意弹幕礼仪，文明用词
1591971843434:522129856:看见盖伦我不怕不怕啦
1591971854488:300551734:瓦努来复仇了
1591971858693:96944653:我吐了手速太快了
1591971860328:629709:好
1591971860328:102352069:别别喝了
TIME22:24ONLINE38533
1591971868926:372305519:✿哇，PS233游戏姬来啦，谢谢关注纯姐，么么哒✿
1591971868926:36266865:哈哈哈哈
1591971874271:522129856:鳄鱼哈哈哈
1591971874271:9499660:纯姐小心乐极生悲
1591971875868:37969983:整 活 预 定
1591971889410:5724016:土块开始啦
1591971892163:102352069:这次纯姐稳赢了啊
TIME22:24ONLINE38492
1591971893827:36266865:无头纯姐走起来
1591971901810:67882034:我又看到石仔了
1591971905802:36849885:？？？
TIME22:25ONLINE38492
1591971926039:9499660:小心吸血鬼
1591971931738:5724016:我们一般用两个字形容这样的纯姐
1591971935488:102352069:纯姐万一对面赢了呢？
TIME22:25ONLINE38441
1591971963914:174143838:战况如何
1591971974250:415512689:开到纯姐的团就是好团
TIME22:26ONLINE38441
1591971988985:372305519:✿哇，-厾荭弑-来啦，谢谢关注纯姐，么么哒✿
1591972000982:9499660:纯姐一定要小心吸血鬼
TIME22:26ONLINE38464
1591972024571:102352069:对面不好打啊
1591972036235:102352069:纯姐是输了一局然后赢了一局
1591972042027:522129856:吸血鬼石头人阿卡丽
TIME22:27ONLINE38464
1591972050471:36266865:喜欢纯姐的可以点关注，注意弹幕礼仪，文明用词
1591972058105:102352069:纯姐咋了～
1591972066259:9499660:睡着了
1591972068440:522129856:又在回信息把
TIME22:27ONLINE38475
1591972078372:102352069:纯姐你没事吧别吓我
1591972078372:36266865:喜欢纯姐的可以戴个纯姐的牌子，一个B克拉或者投二十个硬币
1591972078372:478787830:我赌一块大洋纯姐这把银
1591972086380:102352069:我可担心坏了
1591972091621:33436132:直接狂徒铠甲
1591972097579:433618377:可把我吓坏了。
1591972102657:522129856:不要香炉
TIME22:28ONLINE38475
1591972107983:522129856:这把没用
1591972126264:383008133:。。。
1591972131354:372305519:❀新来的小伙伴，欢迎来到纯姐的直播间，点关注不迷路❀
TIME22:28ONLINE38558
1591972142103:2923466:太看不起洛了
1591972143161:522129856:救赎都比香炉好
TIME22:29ONLINE38558
1591972164720:433618377:我好奇纯姐的妈妈会不会突然出现在直播间呢
1591972169003:372305519:✿哇，西园寺枫枫来啦，谢谢关注纯姐，么么哒✿
1591972176993:102352069:是大仙女
TIME22:29ONLINE38620
1591972194349:350618228:日常看戏
1591972199344:321601194:女妖中亚吧活着才能套盾
1591972214048:522129856:这个阵容对奶妈毫无威胁
1591972215867:96944653:看戏.JPG
TIME22:30ONLINE38620
1591972230446:522129856:除非她送了
1591972243516:383008133:6狂徒，秒不了你，过一会又是一条好汉
1591972247217:433618377:直接上去哈撒给
TIME22:30ONLINE38578
1591972259566:37969983:气出天津话
1591972272488:350618228:给力啊...队友
1591972273646:68135651:纯姐晚上好
TIME22:31ONLINE38578
1591972284956:522129856:一个没用
1591972287515:142851326:⁄(⁄ ⁄•⁄ω⁄•⁄ ⁄)⁄
1591972296795:522129856:要出就出3个
1591972298233:383008133:哈哈哈哈
1591972303225:433618377:要不我们开一个赌局吧，赌纯姐这把赢还是输
TIME22:31ONLINE38533
1591972317131:350618228:优秀
1591972319347:321601194:先出狂徒血不够3000没有的
1591972322015:21304133:反正就救赎坩埚
1591972323212:415512689:蓝盾冰心加板甲
1591972333287:10966199:好大
1591972340197:68135651:好大
1591972341219:21304133:加其他想怎么样出都行
1591972341219:275631261:这个大可以
TIME22:32ONLINE38533
1591972345500:68135651:双关
1591972354621:5724016:这波一保四
TIME22:32ONLINE38554
1591972381236:433618377:总觉得这把要凉啊
1591972397478:158416882:带上好进？
1591972401342:245195487:石头人永远的混子
TIME22:33ONLINE38554
1591972405262:2528520:先做救赎和圣杯
1591972405262:321601194:应该出个女妖
1591972410474:68135651:怎么都逮着纯姐打？？？？
1591972418918:21304133:坩埚
1591972421053:76969204:ad露露
1591972424812:522129856:适应性头盔
1591972428622:21304133:其他想怎么样出都行
1591972428622:321601194:不出女妖石头人太好大你了
1591972428622:174023173:魔抗鞋
1591972434174:245195487:出女妖
TIME22:33ONLINE38556
1591972444466:21304133:香炉啊
1591972444468:522129856:坩埚纯姐可能不会用
1591972451444:350618228:听大佬的建议
1591972451444:2528520:圣杯就够了
1591972451444:68135651:谢谢纯姐，我一兄弟说他好了
1591972462878:36266865:喜欢纯姐的可以点关注，注意弹幕礼仪，文明用词
TIME22:34ONLINE38556
1591972473119:133593493:纯姐，好混
1591972480012:21304133:这个大好
1591972485202:21304133:6666好操作
1591972489153:5724016:今晚赢多输少
1591972493941:68135651:这个好大
TIME22:34ONLINE37973
1591972503461:13202950:夸你混的好
1591972505944:99734639:我来看纯姐受虐了
1591972513325:133593493:哈哈哈
1591972513325:350618228:话说各位这个游戏是靠什么的啊？
TIME22:35ONLINE37973
1591972553766:22895980:？？？不是靠吼？？？
TIME22:35ONLINE37433
1591972556577:29116297:不是喊得越大输出越高吗
1591972560411:16950001:音游艹
1591972564512:76969204:看着纯姐直播在弗雷打排位
1591972566329:102352069:要赢了？
1591972567754:34606469:靠喊
1591972567754:2923466:？？？？？
1591972571156:245195487:无情铁手，致残打击，西内
1591972575422:22895980:音游2333333
1591972577881:350618228:我笑了....游戏就靠吼
1591972579660:5724016:我建议滑着走
TIME22:36ONLINE37433
1591972593129:102352069:太猛了
1591972601055:102352069:真的太猛了
1591972610683:26859446:E是盾，W是加速
1591972613929:76969204:磕了药一样
1591972613929:22895980:纯姐来次5杀，上个舰
TIME22:36ONLINE37472
1591972625464:36266865:喜欢纯姐的可以点关注，注意弹幕礼仪，文明用词
1591972628275:522129856:声控游戏
1591972639635:7320578:不放救赎吗？
TIME22:37ONLINE37472
1591972647289:102352069:对面好惨啊
1591972649228:2923466:祖传救赎啊
1591972651259:21304133:无情嘲讽
1591972660731:102352069:莫哭莫哭
1591972660731:22895980:2333333
1591972660731:350618228:太稳了
1591972665512:36266865:喜欢纯姐的可以点关注，注意弹幕礼仪，文明用词
1591972665513:102352069:已经赢了
1591972668906:87430973:啊这
1591972670056:245195487:纯姐打排位就是老分奴了
1591972670056:21304133:哈哈哈哈
1591972672749:629709:都怪你们看不到纯姐的剁头
TIME22:37ONLINE37538
1591972675636:102352069:赢了比啥都重要
1591972678747:102352069:太强了
1591972678747:21304133:最后一秒
1591972682939:21304133:这个操作
1591972691781:99734639:看纯姐受虐让我快乐
TIME22:38ONLINE37538
1591972706215:22895980:敲...刚刚那个歌声音贼像我二姐
1591972723223:372305519:谢谢泪灬梦痕乄送来了1个B坷垃，可以佩戴纯姐的勋章哟~
1591972730621:36266865:(=・ω・=)(=・ω・=)(=・ω・=)
1591972730621:372305519:❀新来的小伙伴，欢迎来到纯姐的直播间，点关注不迷路❀
TIME22:38ONLINE37574
1591972756875:36266865:喜欢纯姐的可以戴个纯姐的牌子，一个B克拉或者投二十个硬币
TIME22:39ONLINE37574
1591972768220:87430973:ios送太亏
1591972780399:303007228:原来还是个游戏主播
1591972788687:372305519:谢谢泪灬梦痕乄赠送给纯姐的80个吃瓜(*＞◡＜*)
1591972793294:350618228:上次看的时候好像还有个更高的来着
1591972794998:522129856:纯姐一直都是黑铁啊
TIME22:39ONLINE37680
TIME22:40ONLINE37680
1591972829915:522129856:？？？？
1591972837576:393706673:腹语
1591972838690:522129856:掘墓？？？
1591972843353:21885417:盖伦玩家狂喜
1591972848058:245195487:感谢大佬送的吃瓜
TIME22:40ONLINE37924
1591972857739:2923466:嘴强王者
1591972865677:36266865:喜欢纯姐的可以点关注，注意弹幕礼仪，文明用词
1591972871990:11611969:要不是见识过您的技术 老夫就信了
1591972875307:36266865:(=・ω・=)(=・ω・=)(=・ω・=)(=・ω・=)
1591972876400:372305519:(=・ω・=)(=・ω・=)(=・ω・=)(=・ω・=)
1591972884581:87430973:色诱
1591972884581:76969204:挖坟人
TIME22:41ONLINE37924
1591972886747:522129856:这把三相血手振奋头盔
1591972895204:306116892:开好房间了，速来
1591972895204:383008133:这，，，
TIME22:41ONLINE38039
1591972917063:76969204:无尽无尽无尽无尽无尽无尽无尽
1591972927876:233230308:女人哪有游戏好玩(￣3￣)
1591972935069:87430973:用笑声震下线
1591972936176:245195487:直接出魔抗
1591972938933:306116892:你开房间我一定去
1591972944930:60664437:溜啦睡觉喽
TIME22:42ONLINE38039
1591972947600:60664437:纯姐晚安啊
1591972949181:372305519:谢谢呆呆的me送来了1个冰阔落，纯姐喝冰阔落~
1591972961261:26012994:(〜￣△￣)〜
1591972965162:36266865:喜欢纯姐的可以点关注，注意弹幕礼仪，文明用词
TIME22:42ONLINE37573
1591972978472:1682295:大大大
1591972982738:21885417:愉快的迫害纯姐开始了
TIME22:43ONLINE37573
1591973012135:99734639:看纯姐受虐让我快乐
1591973019734:36266865:喜欢纯姐的可以点关注，注意弹幕礼仪，文明用词
1591973021110:383008133:纯姐，你手呢
1591973027763:36266865:哈哈哈
TIME22:43ONLINE37100
1591973040418:99734639:放心，纯姐瑟文里我让你吊打一方
1591973057945:36266865:哈哈哈
1591973061958:383008133:不是语音控制的吗(手动狗头)
1591973061958:522129856:见面交个闪现
1591973063473:245195487:厄加特牛逼
1591973065150:36266865:喜欢纯姐的可以点关注，注意弹幕礼仪，文明用词
TIME22:44ONLINE37100
1591973069321:87430973:什么情况
1591973069321:341842847:不对劲
1591973080425:245195487:友好交流
1591973085690:38825932:有内鬼
1591973090204:5724016:有内鬼
TIME22:44ONLINE37264
1591973101995:21885417:有内鬼，纯姐小心！
1591973105921:245195487:这是打招呼呢，纯姐你也交个闪
1591973113218:96974941:确定这不是演你？
TIME22:45ONLINE37264
1591973129722:372305519:✿哇，bili_44078523207来啦，谢谢关注纯姐，么
1591973131298:372305519:么哒✿
1591973134284:522129856:这把难了
1591973151973:36266865:喜欢纯姐的可以点关注，注意弹幕礼仪，文明用词
TIME22:45ONLINE37385
1591973159672:372305519:✿哇，sky夜葬来啦，谢谢关注纯姐，么么哒✿
1591973177983:520136903:纯姐好
1591973183329:220412562:啊这.......
TIME22:46ONLINE37385
1591973187800:372305519:谢谢黑粉独立团团长-龙翔赠送给纯姐的1个吃瓜(*＞◡＜*)
1591973189706:372305519:✿哇，黑白desu来啦，谢谢关注纯姐，么么哒✿
1591973192664:55435191:机器人欢迎好有意思，我要反复取关、关注
1591973199880:168186033:苟会长，挂机来看vtb？
TIME22:46ONLINE37560
1591973220351:372305519:✿哇，邪恶少女谢广坤、二代T部门行政主管-K、叽爸来啦，谢谢
1591973221956:372305519:关注纯姐，么么哒✿
1591973238617:220412562:哈哈哈哈哈哈哈哈哈哈哈哈哈
1591973243251:220412562:哈哈哈哈哈哈
1591973244646:372305519:吉良吉影不想点赞将他的1个么么哒送过来，亲一口纯姐就跑~
TIME22:47ONLINE37560
1591973247567:21885417:哇哦
1591973249798:372305519:✿哇，八级残伤来啦，谢谢关注纯姐，么么哒✿
1591973252042:227751084:akl好送
1591973263558:87430973:令我感动战栗。。。
TIME22:47ONLINE37726
1591973279583:372305519:✿哇，bili_59118462630来啦，谢谢关注纯姐，么
1591973281157:372305519:么哒✿
1591973304062:233230308:草丛原子弹
1591973306001:55435191:后盾指dai掉回泉水坚实
1591973306001:57500882:正战绩，我清洁
TIME22:48ONLINE37726
1591973308967:17927049:纯姐怎么越穿越多了，明天天气这么热
1591973308967:372305519:✿哇，ayk_bili来啦，谢谢关注纯姐，么么哒✿
1591973326022:262047006:这身衣服好大啊(·∀·)
1591973331575:372305519:❀新来的小伙伴，欢迎来到纯姐的直播间，点关注不迷路❀
1591973335862:522129856:这把还手都难
TIME22:48ONLINE37861
1591973360668:36266865:喜欢纯姐的可以点关注，注意弹幕礼仪，文明用词
1591973362190:52490916:在塔下狗狗祟祟
1591973364207:227751084:没有开团
TIME22:49ONLINE37861
1591973387892:251368956:哈哈哈哈哈哈哈哈哈哈哈
1591973395171:522129856:厄加特空大
TIME22:49ONLINE38019
1591973404093:251368956:经典手忙脚乱哈哈哈哈哈哈哈哈哈
1591973409750:338411818:问题不大
TIME22:50ONLINE38019
1591973427041:31924034:纯姐战绩居然是正的。太离谱了
1591973432753:22895980:啥？？居然纯姐杀人最多
1591973435771:31924034:我的青春结束了
1591973446823:227751084:开团开不起来，被对面开了又打不过，这把难
TIME22:50ONLINE38077
1591973456606:102352069:哈哈哈哈哈哈
1591973458404:204335242:拿了全队一半的人头
1591973476119:51822709:睡前mua一口纯姐。安安
1591973476119:36266865:喜欢纯姐的可以点关注，注意弹幕礼仪，文明用词
1591973476119:522129856:雪人推雪球你可以把他框住
1591973479886:400334044:纯姐杀人了？爷青结
1591973483013:24311275:快追着纯姐打
TIME22:51ONLINE38077
1591973488016:372305519:♥谢谢兽耳小咕叽成功登船，成为纯姐的1个舰长啦♥(°∀°)ﾉ
1591973489595:372305519:666~♥谢谢兽耳小咕叽成功登船，成为纯姐的1个舰长啦♥(°
1591973491207:372305519:∀°)ﾉ666~
1591973494875:227751084:？你巴不得时光死
TIME22:51ONLINE40097
1591973518830:36266865:哈哈哈哈哈
1591973530704:102352069:谢谢上船
1591973534097:522129856:绝望的奶妈
1591973538800:204335242:绝望的奶妈  哈哈哈哈
1591973540480:245195487:小兵，永远的神
1591973545548:31924034:啊…纯姐灰屏幕了，这才是我的青春。
TIME22:52ONLINE40097
1591973547384:36266865:哈哈哈哈
1591973557534:22895980:新朋友
TIME22:52ONLINE40160
1591973580293:36266865:(=・ω・=)(=・ω・=)(=・ω・=)
1591973581376:227751084:时光真爱
1591973591540:245195487:你的W墙挡雪球啊
1591973593600:251368956:时光的爱
1591973595227:482338666:唉？痴呆
1591973596366:383008133:好人卡，不亏
1591973599491:36266865:哈哈哈哈哈
1591973602146:522129856:可能是为了那个药水赎罪
1591973602146:204335242:“你是个好人：
1591973603799:24311275:他在演你啊纯姐
1591973606490:204335242:哈哈哈哈
TIME22:53ONLINE40160
1591973610942:442356331:巫毒术！
1591973624858:520718005:好人卡绝赞派送中
TIME22:53ONLINE40208
1591973640055:372305519:✿哇，天国の挽歌来啦，谢谢关注纯姐，么么哒✿
1591973641297:98659710:让纯姐看看ad奶妈
1591973644201:245195487:厄加特是内鬼
1591973644201:36266865:哈哈哈哈
1591973645302:227751084:奶妈这攻速怕不是出的破败
1591973654891:520718005:是吃书的
1591973657534:245195487:厄加特一个雪球撞死了
TIME22:54ONLINE40208
1591973677212:522129856:是的
1591973681509:389049978:加油啊纯姐
1591973682740:7694059:输出全靠防御塔
1591973688052:8648557:卤菜老演员了
1591973688052:251368956:你是雪霞吗
1591973690088:3313514:输出流奶妈  
TIME22:54ONLINE40196
1591973699922:372305519:✿哇，菜鸟的倔强来啦，谢谢关注纯姐，么么哒✿
1591973699922:102352069:哈哈哈哈哈哈哈
1591973706808:389049978:纯姐又被虐了
1591973709618:227751084:这奶妈AD的
1591973717616:31924034:纯姐站起来了。这战绩！
TIME22:55ONLINE40196
1591973728157:36266865:喜欢纯姐的可以点关注，注意弹幕礼仪，文明用词
1591973728157:20630203:纯姐这身好！
1591973735969:520718005:AD奶妈
TIME22:55ONLINE40168
1591973760998:3313514:纯姐就特别适合都市丽人的装扮
1591973762674:245195487:你W挡努努啊
1591973763875:520718005:可能是AD高钙奶
1591973770915:36266865:喜欢纯姐的可以点关注，注意弹幕礼仪，文明用词
TIME22:56ONLINE40168
1591973790122:372305519:✿哇，febing冷静来啦，谢谢关注纯姐，么么哒✿
1591973798138:204335242:哈哈哈哈
1591973799982:36266865:喜欢纯姐的可以戴个纯姐的牌子，一个B克拉或者投二十个硬币
TIME22:56ONLINE39578
1591973831673:227751084:他雪球cd比你墙短哈哈哈哈哈哈哈
1591973846611:24311275:卖队友哈哈哈
TIME22:57ONLINE39578
1591973852006:102352069:哈哈哈哈哈哈
1591973872789:36266865:哈哈哈哈
1591973877169:520718005:纯姐：纯姐向你发出对线申请
TIME22:57ONLINE39057
1591973881405:522129856:草里放大的努努
1591973886352:204335242:被香蕉砸死了  哈哈哈哈
1591973889138:36266865:喜欢纯姐的可以点关注，注意弹幕礼仪，文明用词
1591973899575:15304462:。。。
1591973901946:11379562:刚才打的话可以吧奶妈大眼都啥了 拿一波三杀的
TIME22:58ONLINE39057
1591973921693:11379562:还是怂作怪
1591973928193:520718005:对线失败，请复活后继续
1591973928193:11385302:纯姐，看我的装备
1591973931466:372305519:❀新来的小伙伴，欢迎来到纯姐的直播间，点关注不迷路❀
1591973931466:227751084:这么肉，纯姐200斤了
TIME22:58ONLINE39219
1591973945461:328661941:BGM名字叫啥呀？
1591973948973:372305519:谢谢柠秋灬子送来了1个B坷垃，可以佩戴纯姐的勋章哟~
1591973950177:251368956:用最怂的语气说最硬气的话
TIME22:59ONLINE39219
1591973992060:102352069:加油加油加油
TIME22:59ONLINE39408
1591974001234:245195487:有一说一，我感觉纯姐更像演员了
1591974003977:11379562:BGM ？年下诱惑伴奏
1591974005303:24311275:纯姐出肉就要给队友挡技能，别怕
1591974009872:12041985:希望纯姐没事
1591974015810:36266865:哈哈哈
1591974019743:227751084:出护甲吧，猴子打你疼
TIME23:0ONLINE39408
1591974035703:36266865:喜欢纯姐的可以戴个纯姐的牌子，一个B克拉或者投二十个硬币
1591974042186:520718005:出肉挡伤害？反正是会被集火？
TIME23:0ONLINE39589
1591974061469:36266865:喜欢纯姐的可以点关注，注意弹幕礼仪，文明用词
1591974066746:522129856:狗子不切后排打掘墓是不想赢了吗
1591974071891:227751084:好闪
TIME23:1ONLINE39589
1591974093923:24311275:纯姐这个肉一被打跑的比脆皮都快哈哈哈
1591974106947:227751084:这移速怎么回事我人傻了
1591974111243:522129856:先杀奶妈
TIME23:1ONLINE39750
1591974127654:245195487:努努心态炸裂
1591974129913:354524234:哇纯姐正数了青春结束
1591974135722:36266865:喜欢纯姐的可以点关注，注意弹幕礼仪，文明用词
TIME23:2ONLINE39750
1591974150369:372305519:✿哇，晴天布娃娃丨丿来啦，谢谢关注纯姐，么么哒✿
1591974157704:520718005:这波防守反击，可以的
TIME23:2ONLINE39949
1591974183625:227751084:艾希好勾引
1591974190651:227751084:她当鱼饵一直可以的
1591974206956:24311275:居然要赢了不科学
TIME23:3ONLINE39949
1591974210704:12041985:大演
1591974215960:520718005:nice！
TIME23:3ONLINE40083
1591974244723:227751084:大草
1591974253198:36266865:喜欢纯姐的可以点关注，注意弹幕礼仪，文明用词
TIME23:4ONLINE40083
1591974268274:245195487:出冰拳
1591974279293:245195487:冰拳
1591974291018:522129856:可以
TIME23:4ONLINE39501
1591974299893:227751084:挡在前面（
1591974299893:393175861:奥利给
1591974317401:11379562:没事开个大啊  找对面脆皮就对了
1591974324737:384824454:主播男的吧
TIME23:5ONLINE39501
1591974350180:384824454:雷霆嘎吧
1591974353902:447385549:纯姐的样子越来越…………
1591974357994:182522461:水友又在暴打纯姐？(=・ω・=)
TIME23:5ONLINE38946
1591974359113:62057447:这大眼刮痧hhh
1591974359113:393175861:这是什么鬼
1591974366778:245195487:狂徒牛逼
1591974366778:24311275:让你的r去打人
1591974382879:36266865:喜欢纯姐的可以点关注，注意弹幕礼仪，文明用词
TIME23:6ONLINE38946
1591974388900:522129856:掘墓R不能手动控制的吧
1591974401812:11379562:可以 貌似
1591974401812:522129856:和安妮不一样
1591974406911:295538383:可以的
1591974408662:25377249:点歌 演员
1591974408662:11379562:用E
1591974412028:24311275:草丛原子弹
TIME23:6ONLINE39089
1591974421707:245195487:掘墓可以选择跟随还是跟着兵线
1591974421707:11379562:E谁就打谁
1591974427572:227751084:吃了努努一个满大才掉了这点血（
TIME23:7ONLINE39089
1591974450460:372305519:谢谢塞巴斯汀-卡斯特拉诺放起1个礼花，为纯姐献上礼炮~
1591974461959:36266865:喜欢纯姐的可以点关注，注意弹幕礼仪，文明用词
1591974472555:24311275:负战绩了，正常了
TIME23:7ONLINE39175
1591974488733:11379562:出了冰拳无脑Q就完事了
1591974497518:6769297:纯姐晚安
TIME23:8ONLINE39175
1591974510465:372305519:✿哇，零括瑞来啦，谢谢关注纯姐，么么哒✿
1591974517905:227751084:水银解不了厄加特的大诶
1591974531543:372305519:❀新来的小伙伴，欢迎来到纯姐的直播间，点关注不迷路❀
TIME23:8ONLINE39553
1591974539580:5724016:解早了
1591974558959:62057447:一波了一波了
TIME23:9ONLINE39553
1591974568811:522129856:好鬼畜的奶妈
1591974573223:62057447:膀胱局
1591974581633:3313514:居然赢了
1591974585034:372305519:谢谢消亡时间赠送给纯姐的2个吃瓜(*＞◡＜*)
1591974586283:522129856:1723
1591974597185:34733550:努努秀啊
1591974598238:36266865:6666666
1591974598238:629709:轻松
TIME23:9ONLINE39656
1591974604096:372305519:吉良吉影不想点赞将他的1个么么哒送过来，亲一口纯姐就跑~
1591974605290:522129856:睡了睡了
1591974605290:3313514:对面是不是放水了
1591974606786:36266865:纯姐厉害
1591974618921:522129856:88
1591974618922:36731815:纯姐你赢了，能多笑一会么
1591974621880:372305519:谢谢塞巴斯汀-卡斯特拉诺送来了1个给大佬递茶，请纯姐喝下这杯
1591974623474:372305519:茶~
1591974626027:34733550:ohhhh
TIME23:10ONLINE39656
1591974630831:372305519:✿哇，陪七海成为最强的偶像来啦，谢谢关注纯姐，么么哒✿
1591974656455:629709:连赢啊纯姐
TIME23:10ONLINE39734
1591974660816:227751084:杠铃般的笑声（
1591974664128:25377249:银铃般(･∀･)
1591974673220:11104012:女神经的笑声！害怕！
1591974673220:7758327:今夜难眠
1591974674527:3313514:水友给力啊
1591974680266:14030157:纯姐我也想上车
1591974684744:34402260:这笑声我好爱
TIME23:11ONLINE39734
1591974690609:24311275:这个纯姐不一般，好似仙女下凡间
1591974702546:245195487:水友们别演了，给纯姐康康大宝贝
1591974702546:25377249:666688
TIME23:11ONLINE39743
1591974724467:227751084:啊这，这段位明显不对劲吧
1591974727396:32902682:困觉了。晚安纯姐
1591974727396:36266865:喜欢纯姐的可以点关注，注意弹幕礼仪，文明用词
TIME23:12ONLINE39743
1591974752174:62057447:水友们的速度也太快了吧
1591974759117:245195487:水友们别演了，给纯姐康康大宝贝
1591974766864:227751084:黄金铂金爆锤白银要来力
1591974767948:24311275:这个打字速度可以
TIME23:12ONLINE39802
1591974786113:396057874:喉咙发炎好严重
1591974788836:22895980:纯姐晚安哒~~~
1591974798837:36266865:喜欢纯姐的可以点关注，注意弹幕礼仪，文明用词
1591974798837:227751084:e进去捅就完事
1591974800181:396057874:我感觉都快说不出话来了
1591974804048:24311275:赵信带雪球
TIME23:13ONLINE39802
1591974814594:151308700:纯姐捅他菊花
1591974818484:227751084:把脑子扔掉再玩这个莽子
1591974826105:25377249:菊花信 就捅就完事了
TIME23:13ONLINE39848
1591974839020:21803197:用手里的长枪捅爆对面的py
1591974839020:36266865:喜欢纯姐的可以点关注，注意弹幕礼仪，文明用词
1591974844321:245195487:Eqaaaa
1591974850392:34402260:大乱斗玩这个不用脑子，捅就完事了
1591974857591:3086201:是不是可以给纯姐搞个皮肤号用用啊，增加节目效果……
1591974859120:25377249:半肉吧。。
1591974860811:227751084:赵信出啥，三相行吗
1591974862669:35603959:攻速
TIME23:14ONLINE39848
1591974870730:372305519:✿哇，我眼睛瞎听不见来啦，谢谢关注纯姐，么么哒✿
1591974876030:227751084:破败，破败
1591974877262:372305519:谢谢-腐草为萤送来了1个B坷垃，可以佩戴纯姐的勋章哟~
1591974880322:21803197:破败羊刀三圣？
1591974880322:98659710:今晚彻夜不眠
1591974883097:151308700:破败三项
1591974883097:21803197:然后就出肉了
1591974885721:151308700:然后出肉
1591974891363:227751084:这版本近战能出破败就出，可以的
TIME23:14ONLINE39905
1591974906232:36266865:喜欢纯姐的可以点关注，注意弹幕礼仪，文明用词
1591974917585:227751084:对
1591974928745:54897136:卧槽这衣服（流鼻血）
TIME23:15ONLINE39905
1591974930372:372305519:✿哇，T空T来啦，谢谢关注纯姐，么么哒✿
1591974935075:227751084:企业级理解
1591974944954:25377249:起夜级理解
1591974956977:13506707:我将带头抽风
TIME23:15ONLINE39983
1591974959822:19219032:纯姐之理解
1591974959822:372305519:✿哇，核聚变发电站、无法停止的脚步旅者、思-勉、AN94-S
1591974961979:372305519:来啦，谢谢关注纯姐，么么哒✿
1591974964609:25377249:纯姐永不团灭
1591974972261:24311275:破败对近战加成高挺好的
1591974974637:15020968:就可以？
TIME23:16ONLINE39983
1591974991938:54897136:队友们，瞄准纯姐不放水！
1591975010391:227751084:姐啊三级你就是玩个塞恩人家打你也疼啊
1591975015181:29106172:因为你跑的快
1591975017552:24311275:实力挂机
TIME23:16ONLINE40037
1591975026985:36266865:哈哈哈哈
1591975026985:372305519:♥谢谢守护楠妈成功登船，成为纯姐的1个舰长啦♥(°∀°)ﾉ6
1591975029074:372305519:66~♥谢谢守护楠妈成功登船，成为纯姐的1个舰长啦♥(°∀°
1591975030668:372305519:)ﾉ666~
1591975034396:36266865:喜欢纯姐的可以点关注，注意弹幕礼仪，文明用词
1591975044458:146800165:哈哈，纯妹，好久不见
TIME23:17ONLINE40037
1591975062598:34402260:（￣▽￣）
1591975067590:36266865:喜欢纯姐的可以戴个纯姐的牌子，一个B克拉或者投二十个硬币
1591975070013:54897136:今晚这衣服使得敌方兴奋加一
1591975071781:19219032:纯姐在划海
TIME23:17ONLINE42012
1591975079419:372305519:✿哇，yna7159reh来啦，谢谢关注纯姐，么么哒✿
1591975101760:36266865:(=・ω・=)(=・ω・=)(=・ω・=)
1591975106375:36266865:喜欢纯姐的可以点关注，注意弹幕礼仪，文明用词
TIME23:18ONLINE42012
1591975110425:372305519:✿哇，VC丶辰墨来啦，谢谢关注纯姐，么么哒✿
1591975118751:372305519:谢谢ミク-伪送来了1个冰阔落，纯姐喝冰阔落~
1591975131575:372305519:❀新来的小伙伴，欢迎来到纯姐的直播间，点关注不迷路❀
TIME23:18ONLINE41885
1591975140107:372305519:✿哇，彦森HFN来啦，谢谢关注纯姐，么么哒✿
1591975144534:146800165:是啊，大半年没来B站了，前段时间刚回来，哈哈
1591975145577:227751084:大（有端
1591975155204:452623739:大魔女~~~
1591975166182:36266865:喜欢纯姐的可以点关注，注意弹幕礼仪，文明用词
1591975166182:97046308:bgm应景
1591975167349:54897136:这发育的……过分了
TIME23:19ONLINE41885
1591975189825:174143838:战况如何现在
1591975192037:146800165:是啊，忙了大半年，终于有时间休息了
TIME23:19ONLINE41777
1591975200319:372305519:✿哇，我单推yagoo酱来啦，谢谢关注纯姐，么么哒✿
TIME23:20ONLINE41777
1591975230234:372305519:✿哇，破烂站站长来啦，谢谢关注纯姐，么么哒✿
1591975236393:285849139:(=・ω・=)
1591975237506:174143838:有没有上小本本的或者预约上小本本的
1591975244484:372305519:谢谢守护楠妈建筑起1个摩天大楼，纯姐哟，B站买房了解一下~谢
1591975245780:372305519:谢守护楠妈建筑起1个摩天大楼，纯姐哟，B站买房了解一下~
1591975253262:230295582:游戏区音乐Vup
1591975254649:36266865:哈哈哈哈哈
1591975259614:452623739:综合主播1
TIME23:20ONLINE41619
1591975260850:372305519:✿哇，千风208008来啦，谢谢关注纯姐，么么哒✿
1591975260850:230295582:三层头衔
1591975262030:603550258:(╬ﾟдﾟ)▄︻┻┳═一
1591975268230:36266865:不是吹口哨的吗(=・ω・=)(=・ω・=)
TIME23:21ONLINE41619
1591975289991:230295582:拙虐
1591975289991:494611983:冒个泡泡
1591975292965:146800165:拿出你无限法则29杀的操作来，哈哈
1591975294594:494611983:溜了溜了
1591975308562:36266865:哈哈哈哈
1591975310051:189755914:？
1591975311201:926765:吹口哨厉害（昨晚刚学的
1591975319292:29106172:吹口哨厉害的也是吹的
TIME23:21ONLINE46141
1591975323741:227751084:等破败出来了开团捅小炮就行了
1591975326938:174143838:又有新成员上小本本了吗
1591975326938:54897136:这王者，我震撼喃妈
1591975336676:36266865:不，其实是你忘记拿哨子了
1591975347104:25377249:好家伙，直接嘴里种水稻
1591975348136:227751084:龙龟开了就跟
TIME23:22ONLINE46141
1591975362769:28935614:臭妹妹
1591975367620:36266865:哈哈哈哈
1591975370792:6883917:晚上好(｀·ω·´)
1591975377136:227751084:有大的时候e进去开大捅后排
TIME23:22ONLINE46052
1591975381613:19219032:纯姐直播喂饭
1591975384398:174143838:算了，还是等录播在看吧，直播间只能听声音
1591975389954:36266865:对，不是技术菜，是鼠标的问题(=・ω・=)
1591975394478:36266865:喜欢纯姐的可以点关注，注意弹幕礼仪，文明用词
1591975402044:25377249:别喂了别喂了，再喂就胖了
TIME23:23ONLINE46052
1591975423918:54897136:噗哈哈
1591975426195:12960326:刚来就下饭
1591975426195:36266865:哈哈哈哈哈
1591975433187:36266865:喜欢纯姐的可以点关注，注意弹幕礼仪，文明用词
1591975438122:227751084:0-29-0carry全场
TIME23:24ONLINE46178
1591975455058:111202821:纯姐玩无限活力呀
TIME23:24ONLINE46178
1591975470563:372305519:✿哇，-白音-来啦，谢谢关注纯姐，么么哒✿
1591975473851:227751084:正常操作（指给卢锡安加油
1591975485226:146800165:哈哈哈哈，这个人头送的
1591975485227:36266865:哈哈哈哈
1591975492344:25377249:碟中谍
TIME23:25ONLINE45911
1591975505827:12960326:看你可怜送你的
1591975511535:36266865:对面的你的演技不够啊
1591975520006:54897136:应该就哥哥
1591975523854:146800165:666
1591975525271:54897136:叫
TIME23:25ONLINE45911
1591975530889:36266865:我都看出来了，你鸡腿没了，对面的
1591975531941:25377249:雪人就硬演(;¬_¬)
1591975540379:21654647:就你残血，你叫唤个啥
1591975542804:36266865:喜欢纯姐的可以点关注，注意弹幕礼仪，文明用词
1591975545884:24622690:貌似只有您残血了hhhh
1591975548588:54897136:不，你不行
1591975555060:146800165:论一个演员的自我修养
TIME23:26ONLINE45660
1591975572507:42836943:菜
1591975574842:36266865:哈哈哈哈
1591975574842:54897136:加油
1591975577505:146800165:哦豁，没了
1591975586270:6500461:崩撤卖溜
TIME23:26ONLINE45660
1591975593845:24622690:ohohohoh
1591975595412:36266865:喜欢纯姐的可以戴个纯姐的牌子，一个B克拉或者投二十个硬币
1591975601793:227751084:届不到的破败（悲
1591975601793:96944653:楠妈说什么大实话
1591975605795:189755914:先出三相吧
1591975616596:21654647:这钵啊，这钵是，肉弹冲击！
TIME23:27ONLINE45526
1591975621177:372305519:✿哇，Material3600来啦，谢谢关注纯姐，么么哒✿
1591975626915:36266865:纯姐能不能赢，全靠队友带
1591975644344:25377249:9保1哈哈哈
TIME23:27ONLINE45526
1591975651229:372305519:✿哇，雪貂尤诺、げんじつひていしゃ来啦，谢谢关注纯姐，么么哒
1591975652810:372305519:✿
1591975673552:146800165:拆塔
TIME23:28ONLINE45325
1591975681022:372305519:✿哇，一只不开心的okayu、湊_阿库娅Official、a
1591975682607:372305519:sdgf135来啦，谢谢关注纯姐，么么哒✿
1591975685296:372305519:谢谢绫珏setsuna放起1个礼花，为纯姐献上礼炮~
1591975686851:227751084:睡觉，溜了
1591975706706:19219032:不知不觉，纯姐已经快50
TIME23:28ONLINE45325
1591975710717:372305519:✿哇，萌新的粽、WSUNEL、觞黥刄来啦，谢谢关注纯姐，么么
1591975712290:372305519:哒✿
1591975714868:36266865:喜欢纯姐的可以点关注，注意弹幕礼仪，文明用词
1591975729913:146800165:这波又没了
1591975731584:372305519:❀新来的小伙伴，欢迎来到纯姐的直播间，点关注不迷路❀
TIME23:29ONLINE45813
1591975742236:21654647:断兵线
1591975747791:21654647:不然一波了
1591975766385:36266865:喜欢纯姐的可以点关注，注意弹幕礼仪，文明用词
1591975766385:103496496:_(:3」∠)_
1591975769754:21738610:巅峰marin?
TIME23:29ONLINE45813
1591975773771:54897136:害～标
1591975776124:25377249:这绿甲就离谱(･∀･)
1591975782381:54897136:标准结局～
TIME23:30ONLINE45632
1591975801192:372305519:✿哇，BATTLEXIA来啦，谢谢关注纯姐，么么哒✿
1591975804816:36266865:哈哈哈哈
1591975819587:189755914:先出这个就没那么高伤害
1591975823146:24311275:对方ad输出猛
TIME23:30ONLINE45632
1591975831134:372305519:✿哇，骚气满满の时崎狂三来啦，谢谢关注纯姐，么么哒✿
TIME23:31ONLINE45604
1591975885000:36266865:哈哈哈
1591975888677:146800165:哈哈哈哈哈，那我等你唱完歌再去睡觉，哈哈
TIME23:31ONLINE45604
1591975893043:25377249:gg
1591975895873:54897136:晚安，大小姐
1591975896977:926765:头有点疼  睡了  纯姐晚安
1591975898779:5689969:gg
1591975915673:339212359:纯姐晚上好
1591975920826:372305519:✿哇，LossilkLauraLin、左流年来啦，谢谢关注纯
TIME23:32ONLINE46008
1591975922417:372305519:姐，么么哒✿
1591975928644:133593493:内鬼
1591975935446:5689969:还能抵抗一波
1591975945567:36266865:纯姐第一次被推家怎么开心
TIME23:32ONLINE46008
1591975963677:133593493:纯姐内鬼来的
1591975970454:146800165:很早以前你唱过的，琵琶行
TIME23:33ONLINE45953
1591975981277:372305519:✿哇，会员风衣来啦，谢谢关注纯姐，么么哒✿
1591975998448:96944653:琵琶行我觉得可以
1591976002660:54897136:为什么不唱撒野呢，
1591976003889:36266865:哈哈哈
1591976007403:5689969:结束了
TIME23:33ONLINE45953
1591976011087:372305519:✿哇，空洞之殇来啦，谢谢关注纯姐，么么哒✿
1591976026182:146800165:可以啊，你喜欢唱什么都行，反正你唱的都好听
1591976040552:372305519:✿哇，奏心结弦来啦，谢谢关注纯姐，么么哒✿
1591976040552:36266865:哈哈哈
TIME23:34ONLINE45884
1591976044717:36266865:喜欢纯姐的可以点关注，注意弹幕礼仪，文明用词
1591976046726:338411818:啊这
1591976048417:146800165:哈哈哈哈哈
1591976068830:36266865:喜欢纯姐的可以戴个纯姐牌子，一个B克拉或者投二十个硬币
1591976070339:25377249:666666
TIME23:34ONLINE45884
1591976073954:36266865:哈哈哈哈
1591976076733:54897136:舔继续舔
1591976080979:146800165:阔以阔以，哈哈
1591976082714:19878304:不亏是大老板，说话跟我们这种小观众就不一
1591976093672:54897136:青藏高原
TIME23:35ONLINE45747
1591976113777:36266865:光年之外？
1591976115742:98659710:一剪梅(=・ω・=)
1591976120107:35419834:哇这是妖姬李相赫的衣服吗
1591976122504:338411818:从前慢挺好
1591976126134:310119877:死了都要爱
1591976130869:36266865:哈哈哈哈
TIME23:35ONLINE45747
1591976152051:54897136:今晚故事呢？
TIME23:36ONLINE45562
1591976168913:36266865:喜欢纯姐的可以点关注，注意弹幕礼仪，文明用词
1591976168913:146800165:我最近遇到一个人就点earth song_(:3」∠)_
1591976174632:399834967:纳尼，纯姐鼠标也坏了？
1591976189711:35419834:害怕
TIME23:36ONLINE45562
1591976196582:36266865:好听
1591976203249:54897136:完了纯姐坏掉了
1591976203250:36266865:好听
1591976213398:96944653:好听
1591976220015:36266865:喜欢纯姐的可以戴个纯姐的牌子，一个B克拉或者投二十个硬币
TIME23:37ONLINE45462
1591976228962:36266865:哈哈哈
1591976235733:36266865:好听
1591976242601:36266865:好听
1591976247180:31650028:哈哈哈哈哈哈哈哈
1591976248929:36266865:好听
TIME23:37ONLINE45462
1591976251595:25377249:(･∀･)咋还唱着唱着自己笑了
1591976267238:366114944:\纯姐/\纯姐/\纯姐/
1591976269630:151559400:我肥来了
TIME23:38ONLINE45315
1591976289023:24311275:亿点点
1591976289023:36266865:好听
1591976299776:37969983:这背后背的是个勺子么
1591976299776:399834967:刚刚买鼠标回家。。
1591976299776:36266865:好听
1591976310164:146800165:哈哈哈哈哈
TIME23:38ONLINE45315
1591976313777:25377249:(°∀°)ﾉ。。。。
1591976318325:151559400:噗突然破功
1591976319672:36266865:好听
1591976331378:372305519:❀新来的小伙伴，欢迎来到纯姐的直播间，点关注不迷路❀
1591976336651:96944653:反正好听就完事了
1591976341190:372305519:✿哇，阿叶穷来啦，谢谢关注纯姐，么么哒✿
TIME23:39ONLINE45179
1591976353503:54897136:晚安了，daling～
1591976353503:36266865:好听
1591976367402:1443522:好听
TIME23:39ONLINE45179
1591976372648:7758327:为纯姐打call！
1591976374565:182010331:纯姐，好听
1591976380215:184623245:。
1591976380215:36266865:好听
1591976392823:54897136:不，是大仙女
1591976401286:372305519:✿哇，小丑悲凉来啦，谢谢关注纯姐，么么哒✿
TIME23:40ONLINE45058
1591976405995:182010331:不准打我老婆
1591976405995:96944653:那确实
1591976408807:36266865:喜欢纯姐的可以点关注，注意弹幕礼仪，文明用词
1591976425295:25377249:(｀・ω・´)纯姐这键盘 青轴
TIME23:40ONLINE45058
1591976436292:96944653:兄弟们把好听打在公屏上
1591976452408:7758327:为纯姐打call！！！
1591976457874:36266865:喜欢纯姐的可以戴个纯姐的牌子，一个B克拉或者投二十个硬币
1591976460975:36266865:好听
TIME23:41ONLINE45417
1591976464615:10883003:hso
1591976467447:36266865:好听
1591976471564:339212359:好听
1591976474107:36266865:好听
1591976475107:151559400:我我我去洗澡了
1591976481481:36266865:好听
1591976481481:96944653:不要拦着我我要为纯姐疯狂打call
1591976489655:36266865:好听
1591976490981:372305519:✿哇，伏加忑来啦，谢谢关注纯姐，么么哒✿
TIME23:41ONLINE45417
1591976497569:36266865:好听
1591976501678:36266865:喜欢纯姐的可以点关注，注意弹幕礼仪，文明用词
1591976503373:151559400:去之前把公屏打在好听上
1591976508160:36266865:好听
1591976515579:38988031:好听
TIME23:42ONLINE45258
1591976531532:36266865:喜欢纯姐的可以戴个纯姐的牌子，一个B克拉或者投二十个硬币
1591976534630:36266865:好听
1591976536457:356314722:好听
1591976540611:36266865:好听
TIME23:42ONLINE45258
1591976553262:36266865:好听
1591976558322:363898094:睡了睡了纯姐晚安
1591976562963:36266865:好听
1591976572286:36266865:好听
1591976575693:36266865:喜欢纯姐的可以点关注，注意弹幕礼仪，文明用词
1591976577130:184470218:好听
1591976581079:10883003:awsl
TIME23:43ONLINE45100
1591976582389:36266865:好听
1591976583892:96944653:好听
1591976588814:36266865:好听
1591976590973:43533926:kksk
1591976594926:94814720:哈
1591976595991:36266865:好听
1591976597943:67766890:\纯姐/\纯姐/\纯姐/\纯姐/\纯姐/
1591976599696:25377249:这戏腔吊
1591976606492:36266865:好听
TIME23:43ONLINE45100
1591976615288:36266865:好听
1591976617210:11958003:好听好听
1591976620304:36266865:喜欢纯姐的可以点关注，注意弹幕礼仪，文明用词
1591976629425:108626570:纯姐晚上好啊^o^~
1591976633219:36266865:好听
1591976639525:372305519:谢谢泡利相对不相容送来了1个打榜，周星为纯姐爆灯日夜不分~
TIME23:44ONLINE44913
1591976642493:36266865:好听
1591976651799:245195487:纯姐我晕
1591976655211:36266865:好听
1591976666205:36266865:喜欢纯姐的可以点关注，注意弹幕礼仪，文明用词
TIME23:44ONLINE44913
1591976674267:410719415:好晃眼
1591976684132:36266865:哈哈哈哈
1591976685872:498190302:纯姐还不睡啊
1591976689429:146800165:哈哈哈哈哈
1591976690887:25377249:学到了学到了
1591976701163:11958003:学到了学到了
TIME23:45ONLINE45279
1591976718170:94814720:比如？
1591976719462:11958003:早点睡吧，好好休息
1591976722750:36266865:哈哈哈哈
1591976725558:3242801:D，都可以D
1591976729674:36266865:喜欢纯姐的可以点关注，注意弹幕礼仪，文明用词
1591976731620:372305519:✿哇，KamenRidMatsuri来啦，谢谢关注纯姐，么么
TIME23:45ONLINE45279
1591976733197:372305519:哒✿
1591976733197:146800165:D不过来了，我现在就看看惹惹他们一家子和你
1591976757005:36266865:哈哈哈
1591976761623:338411818:单推人老舔狗了
TIME23:46ONLINE45063
1591976766149:146800165:哈哈哈哈哈哈
1591976776792:94814720:？
1591976780401:15216469:还是一样配方
1591976780401:36266865:肉与肉还行
1591976783638:10883003:hso
1591976785104:146800165:直播间变的橘了起来
1591976785104:36266865:哈哈哈哈
1591976788743:15216469:肌肤之亲
TIME23:46ONLINE45063
1591976793775:65192472:我要下车
1591976793775:25377249:3d挺贵的
1591976806388:36266865:爱的拥抱(=・ω・=)
1591976814628:10883003:L2D也挺Q弹
1591976814628:36266865:哈哈哈
1591976820008:410719415:这还不立体？还不Q弹
TIME23:47ONLINE45166
1591976824514:36266865:喜欢纯姐的可以点关注，注意弹幕礼仪，文明用词
1591976825641:15216469:会变大吗？
1591976831949:146800165:可以，期待你和惹惹的贴贴联动
1591976847623:36266865:喜欢纯姐的可以戴个纯姐的牌子，一个B克拉或者投二十个硬币
TIME23:47ONLINE45166
1591976855840:22973656:??????
1591976857399:352976160:哇塞⊙ω⊙今晚纯姐好性感(✪▽✪)
1591976859337:36266865:吻，揉(=・ω・=)
1591976863115:410719415:给我降落伞我要下飞机
1591976863116:36266865:哈哈哈哈
1591976865072:146800165:可以安心的去睡觉了，纯妹晚安
1591976871659:523739860:晚安
1591976877167:314061499:喵喵喵？
TIME23:48ONLINE44940
1591976887766:146800165:晚安
1591976898539:352976160:每晚的纯姐都性感
1591976901752:338411818:诗间
1591976909476:338411818:？我哪来cp
1591976911774:372305519:✿哇，物理系DD来啦，谢谢关注纯姐，么么哒✿
TIME23:48ONLINE44940
1591976918135:36266865:哈哈哈，纯姐被大杀特杀，哈哈哈
1591976927014:338411818:如果有cp，那就是纯姐
1591976930081:338411818:嘻嘻嘻
1591976931538:372305519:❀新来的小伙伴，欢迎来到纯姐的直播间，点关注不迷路❀
1591976935961:191057153:晚安
TIME23:49ONLINE44716
1591976942796:36266865:哈哈哈哈
1591976944972:191057153:？
1591976952912:25377249:夏日什么？
1591976954117:36266865:我不知道（￣▽￣）
1591976955717:3671299:jdb
1591976955717:94814720:夏日什么？
1591976961834:352976160:求纯姐的么么哒，就去睡觉～(￣▽￣～)
1591976965090:36266865:可以的
1591976970369:338411818:能啊
1591976970369:246491915:我一进来就听到这么劲爆对消息？？
1591976971725:36266865:可以的
TIME23:49ONLINE44716
1591976973615:11958003:我都没反应过来2333
1591976975830:7758327:期待~
1591976975830:314061499:夏色祭？
1591976979034:36266865:我能熬夜
1591976981735:12320021:夏什么祭？夏色祭？
1591976983664:523739860:好
1591976985702:338411818:不知道嗷，怕
1591976985702:1500913:好的好的
1591976989919:36266865:不知道，夏日祭（￣▽￣）
1591976993488:102352069:啦啦啦啦啦
1591976996104:96944653:好的知道了
1591976998257:25377249:鬼故事
1591977001276:322766105:我只知道那个女人
TIME23:50ONLINE44557
1591977003098:338411818:相声！！！！
1591977008027:102352069:我是快乐的
1591977012145:338411818:相声！！！！
1591977013818:251368956:相声
1591977013818:25377249:鬼故事！鬼故事！鬼故事！
1591977020447:36266865:哈哈哈哈
1591977022693:96944653:我觉得可以
1591977022693:102352069:鬼故事我不怕
1591977025608:338411818:、大仙牛的相声没听过！！！
1591977026905:108254171:呢更要讲了
TIME23:50ONLINE44557
1591977034091:36266865:也是这个直播间吗
1591977035288:314061499:我就不能熬夜了，可惜
1591977042866:25377249:哈哈哈哈  张震讲鬼故事
1591977042866:102352069:我可不是小孩子了
1591977052774:36266865:那可以讲刀子的故事
1591977054225:12320021:今晚的纯姐衣服好好看！
1591977057854:191057153:相声？小希小桃擅长啊
1591977060773:102352069:我估计比纯姐大了吧我21纯姐18
1591977060773:372305519:✿哇，陸羽毛、单推未遂来啦，谢谢关注纯姐，么么哒✿
TIME23:51ONLINE44351
1591977065216:36266865:我喜欢纯姐的刀子故事
1591977068059:102352069:好好好早睡
1591977075165:36266865:可以的
1591977078975:20450195:不要熬夜，直接通宵
1591977084133:2200912:好！
1591977086744:102352069:不刀子我可不信
1591977090958:25377249:今夜夜未眠 来自纯姐 倾听你的心
TIME23:51ONLINE44351
1591977099441:36266865:(=・ω・=)
1591977104054:37969983:啊这
1591977105689:2200912:阿这，这也太舒服了
1591977107959:36266865:好肉麻
1591977107959:191057153:i了i了
1591977116313:102352069:没心动啊
1591977117699:20565316:好久没来了
1591977121734:372305519:✿哇，井盖怜音来啦，谢谢关注纯姐，么么哒✿
1591977122977:251368956:会说话就多说点哈哈哈哈哈哈哈
TIME23:52ONLINE44175
1591977128996:36266865:万一打过头了呢？
1591977132753:191057153:？
1591977134204:36266865:哈哈哈哈哈
1591977143740:36266865:喜欢纯姐的可以点关注，注意弹幕礼仪，文明用词
1591977144843:102352069:哈哈哈哈哈哈哈
1591977149231:20565316:可以老铁
TIME23:52ONLINE44175
1591977153560:102352069:毒鸡汤习惯了
1591977160057:37969983:啊这，不愧是你
1591977162865:2200912:纯姐不要啊，就让我多沉迷一段时间
1591977164857:352976160:纯姐已经让我很舒服了┗┃・ ■ ・┃┛
1591977164858:20565316:没问题老铁
1591977166486:314061499:免费打鸡血啊，真好
1591977166486:36266865:明天我不熬夜，我要通宵(=・ω・=)
1591977169892:24873760:我想打问号
1591977169892:523739860:888888888888888
1591977169892:7758327:晚安啦，纯姐~
1591977173526:191057153:OK
1591977176376:36266865:哈哈哈哈
1591977179811:20565316:我哭了
1591977181992:251368956:纯姐晚安~
1591977181993:36266865:纯姐晚安
1591977181993:102352069:你不灌毒鸡汤我还不想喝呢
1591977181993:37969983:啊这，你不要主动贴过来啊
TIME23:53ONLINE44038
TIME23:53ONLINE44038
1591977213900:352976160:纯姐好像是我第一个单推的
1591977227740:36266865:拜拜，纯姐
1591977229163:20565316:来我2个月，的B坷垃
1591977234270:372305519:谢谢路白不是卤菜放起1个礼花，为纯姐献上礼炮~
1591977235304:36266865:明天陪你熬夜
1591977238879:314061499:晚安纯姐
TIME23:54ONLINE43866
1591977250577:372305519:谢谢小熙小C送来了1个B坷垃，可以佩戴纯姐的勋章哟~
1591977265074:352976160:也推了几个，但是经常白嫖其他女人
TIME23:54ONLINE43866
1591977282463:338411818:学校最近发补助了，就很舒服
1591977285046:215470405:一股邻居大姐姐的味道
1591977289738:102352069:晚安拜拜
1591977289738:338411818:安啦安啦
1591977298170:36266865:可以的
1591977301544:37815472:晚安
1591977301544:372305519:✿哇，哦嘞哦嘞哦嘞gogogo来啦，谢谢关注纯姐，么么哒✿
TIME23:55ONLINE44072
1591977305078:20565316:可以
1591977306856:25377249:(=・ω・=)不小
1591977308973:102352069:不小了
1591977311471:3391392:可能看得清吧
1591977313063:36266865:可以的
1591977313063:25377249:和你的正义一样大
1591977321277:37815472:谢谢在我半夜赶论文的时候的陪伴
1591977328298:7758327:晚安~
1591977328298:36266865:哈哈哈
TIME23:55ONLINE44072
1591977335060:338411818:晚安，纯宝
1591977338431:36266865:晚安纯姐
1591977338431:20565316:可以老铁
1591977339754:1500913:晚安纯姐
1591977342943:102352069:梦到有点悬
1591977342944:37969983:啊这
1591977345377:20565316:没问题
1591977346760:102352069:晚安
1591977350276:37969983:你不要主动贴上来啊
1591977356052:20565316:88
1591977361606:12320021:mua！！
1591977361606:372305519:✿哇，殇瀚来啦，谢谢关注纯姐，么么哒✿
TIME23:56ONLINE43928
1591977375102:36266865:喜欢纯姐的可以点关注，注意弹幕礼仪，文明用词
1591977382286:36266865:拜拜纯姐
TIME23:56ONLINE43928
1591977404985:102352069:晚安好梦拜拜
TIME23:57ONLINE43747
1591977424564:36266865:(=・ω・=)
1591977440289:50832728:？
TIME23:57ONLINE43747
SPEAKERNUM309;184382:慕纯熊藤原知哀:2,629347:源赖光妈妈的BRA:1,629709:人工智能:10,762428:虚拟的歌姬:1,812730:竹升面:3,828794:神帝奥影:1,926765:尜is·a·girl:7,1346034:张羽川:2,1443522:白又宅:6,1500913:许多小问号Fnk:4,1682295:喵你个咪咪喵:1,1934242:清风袭月:1,2200912:弥祢切丸喵:3,2487947:京酱肉丝96:1,2528520:minato-Aqua永远滴神:2,2923466:无悔终不毕业:4,2961623:暗日支配者:2,2983404:VrBack:1,3086201:顾灬枫:1,3242801:Sala丶Zhu:1,3313514:双面のME:5,3391392:雪卐羽:1,3671299:XXTVT:1,3755077:DIO_KO:2,3882811:天星幻神:1,4041074:柳梦璃_official:1,5646324:狂人v9:1,5689969:传说中的帅:3,5724016:computerAI:11,6500461:结青丝:1,6769297:呆呆的me:1,6883917:吾乃野生阿绿是也:1,7320578:致郁系歌手:2,7694059:青灯魔焰:1,7758327:Ghost冬瓜:9,8123805:诗怀雅大小姐:2,8154476:灵魂蒙尘:1,8266407:昵称就是昵称哒:3,8517978:化学好难学:1,8648557:请叫我狐狸精:1,8700118:小生非XX控:2,9167767:天机夬:4,9321256:parkerwinter:1,9345046:输入了新昵称:1,9499660:某机关星探-小树:29,10079045:假如上帝是叮当:1,10184538:村头大叔:7,10355085:一杯拉菲两块糖:10,10883003:魏讽子京:4,10966199:_mrYu:26,11032704:Germaniumdisulphide:1,11104012:_糖心蛋:6,11379562:暗影晓幻:9,11385302:瓦努:21,11611969:丘魁:1,11732903:花鹫姬:3,11958003:泡利相对不相容:4,12041985:晴天夜阳KUI:2,12320021:新科娘_0fficiaI:3,12385350:大龄朋友:6,12740569:惟伟Raiden:2,12808306:双夜红鱼二月花:5,12960326:司马丶硕:2,13202950:一只可爱的诺亚:1,13506707:仙人耀:1,13956172:令伽:2,14021060:白石・结月:1,14030157:轩总呀呀呀QvQ:1,15020968:-腐草为萤:1,15045093:天使翼的眼泪:1,15216469:根号100:3,15304462:肆--月:1,15522877:永远永远酱w-:3,16950001:一留一:1,17582597:不可食用の澄:1,17927049:做你的执事喵:1,18054531:逗逼山二师兄:1,19219032:黑心dz:4,19878304:勒索者不开枪:1,20114949:高价回收十八岁美少女:2,20450195:荒废了这些年:1,20565316:小熙小C:9,20575210:小鸟酱赛高:1,20630203:拾伍年:1,20661450:白海灵梦酱:1,21304133:枪雨:38,21326063:轻钟:6,21654647:女王大人赛高_:4,21738610:天妒de庸才:1,21803197:抽年吗-年萌死了:3,21849836:我不管迪昂是我的:4,21885417:六子小哥哥:4,22017278:浅叶流月:1,22164740:Wing丶Sky翼空:2,22556707:小懒孩123:1,22895980:兽耳小咕叽:8,22973656:榨菜一块五一斤:1,23666304:丨BOT丨神话:1,24311275:梦梦君丿:20,24472285:丶十一__:2,24622690:没出生就单推二哈:2,24873760:七期欺:1,25229616:微笑的抖S君:1,25310996:旧心哒哒:3,25377249:该隐的两面:28,25398517:月落星殒:1,25950364:扬羽_Ageha:1,26012994:启明曦尘:1,26859446:-千幻-:1,27287473:浩淼小白:3,28852244:小鸟游くろこ:1,28935614:脑细胞最骚的内个:1,28947407:瘦不下来的潘达:1,29106172:无主子的DD:2,29116297:当地某不知名白泽:11,29180882:陆子枫丶:4,31444663:star-of-hope:1,31527589:暴走大黑兔:1,31650028:nikumi-:1,31924034:東方丶月弥:4,32902682:塞巴斯汀-卡斯特拉诺:1,33177282:故人叹牵丝戏:3,33436132:小埋丶cc:1,34402260:ミク-伪:3,34606469:约战老司机:1,34733550:_茳蓠:3,35419834:蓝与蓝焰:2,35521598:轻如绫罗:3,35603959:倾听灬夏沫:2,35834239:忽来大风:1,36266865:东方的魔兽:208,36731815:Mao_Sama:1,36849885:SoSo_rrow:1,37815472:碳酸二甲酯:5,37969983:The丶shame:49,38825932:开不动车的司机:1,38905266:忠义两权君子难全:2,38988031:龙帅阿:1,39539406:丶滑稽磊:1,39826796:阴影噬魂者Official:1,42506020:淡定菌Official:1,42836943:弱智水:1,43216798:hdbdhdjsh:2,43434569:左手写书:1,43533926:昵称一使用:1,45362881:花丸天下第一可爱:1,46414860:真是的B:3,46929820:脏脏的牧狗:1,49463272:桑梓晋熙:2,50832728:小司机学开车呵呵呵:1,50993384:Mr丶OZ:1,51822709:jAj77016:7,52359679:赤兔爱吃土:1,52451882:浩荡的宇宙:1,52490916:寂静之白:2,53494550:魏仕怀:2,53503003:就叫pein吧:1,54897136:米莱依:20,55435191:叽爸:2,57500882:带点燃的锐萌萌:2,60221391:活着就是为了巖永琴子:1,60664437:莜桃:17,62057447:纯姐D中人:28,65192472:漓鹊MeSir:1,67766890:樱井佐佐:1,67882034:四月的谎言1:5,68135651:木易小小强:6,71538707:绘心观汝眠:2,73394172:铁憨憨233:1,76445914:等等等等等待:1,76969204:Allen薛:5,80471979:孙柒vvvv:2,82367678:Coldfishpal:2,86374720:一个上了贼船的憨憨:1,87430973:灼哥是我:6,88285485:抱抱我的纸片人老婆:1,90644213:Thresh噠:1,91284304:Mr惜桦:3,91432665:新垣结衣单推人:1,94814720:大小的大大小的小:4,95147068:甘-文-崔山:2,96944653:八神纯yagami:23,96974941:流樱珞:1,97046308:缘故落尘:1,98659710:柠秋灬子:6,99734639:黑粉独立团团长-龙翔:4,102352069:楚霸王项少羽:162,103496496:微丶忆:1,108254171:资深甲板清洁工炒饭君:5,108626570:小船不飘了:1,111202821:卡卡呜呜:1,123812453:墨痕未艾:1,128536837:智商没有在线的为仁:2,128660139:木杉衫:2,128755230:嵐之殤:2,133593493:我没名字真的吖:4,142851326:江九州C:1,146800165:守护楠妈:24,149760288:神奇的黄某豆:1,151308700:小羊锅:3,151559400:木夏o莫邪:8,158414874:魔法科高校的特等生:2,158416882:我--艾莉:1,164005646:吾妻结衣:1,168186033:黑白desu:1,169483543:miss灬星期天:11,174023173:酌酒笑凭栏:1,174076482:噩梦小喵:3,174143838:深渊中的霜雪:10,178142244:纸莫莫:2,182010331:DS18B20温控电动机:2,182522461:我是-书虫:1,184470218:玉兮哒:1,184623245:天卜天气:1,189755914:小熊熊winnie:3,191057153:毒舌觉:10,199609955:新条アカネの母親:1,200473283:不群不驯:2,203190886:征服者老王:8,204335242:soap_x:6,208766476:天然の腐菜鸟:1,215470405:啊哈哈哈红红火火:1,220124440:一点轻墨白:14,220412562:二代T部门行政主管-K:3,222731821:__忆梦__:1,227751084:绫珏setsuna:37,230295582:艾尔桑想要午睡一下:3,233230308:沫漓苯苯:2,235718470:初-晴雨:1,238663366:壹日一心:1,245195487:吉良吉影不想点赞:24,246491915:来自未来的观察者:1,249617516:380A是狂鼠不是绫薇:2,249943569:-大杯可乐_:2,251368956:鱼鱼超棒的:8,257522609:东京有妹其名为埋:1,262047006:八级残伤:1,269865493:污染者玛弗瑞恩:1,273112742:寻-SFL:2,275631261:陌上烟云遥:1,279234705:丶昨日晴空丶:4,283193282:浮千寻ケ:2,285849139:Alivagno:1,291304810:牵冷月:13,293792769:代君_DaiKun:2,295538383:悲伤拳头:1,300551734:八十万喵吹总教头日向:8,303007228:忘尽清风:1,306116892:红星小学之手:8,310119877:嗨呀最气了:1,314061499:坑爹呢丶红丸:8,319107716:不灭白尘:2,319825500:ig要人吗:1,321601194:爲妳殇qing:14,322766105:kkkpjjj:1,328661941:夜阑丶卧听雨:1,333684122:御坂13485号:1,338411818:路白不是卤菜:49,339212359:Love羽刃:2,341842847:耶耶_Yeye:1,350618228:地底世界骨某人:8,352137489:君之旧事将行于何处:1,352976160:我们在讨论言论自由:6,354524234:热狗与玉米的爱情:1,356314722:in看得见路:1,363898094:我们友善一点:1,366114944:诗-间:7,370404018:真实の咸鲲皇:2,372305519:木糖纯的感谢姬:264,383008133:砂石星河:7,384824454:魔法少女妮可:2,389049978:腾云逍遥:2,393175861:冷ペ月柠:2,393706673:我帅碍着你了嘛:1,396057874:消亡时间:34,397239859:你是男是女s:1,399834967:白嫖怪佐伊:2,400334044:茗家的凫:1,400639819:microsniper:1,402522133:凉下桑:2,410719415:博天呐:3,415512689:新科娘是我老婆:3,416106921:千代琉华:1,417239522:Tysiacmiast:1,424404133:冥花-四叶:1,433618377:秩序起源风早神人:5,434788093:YO随性YO:1,435373997:改个名字六天硬币:2,438471457:我永远喜欢木糖纯-:2,442356331:Bili_442356331:1,447385549:呐呐我是真的不会起名字:1,448086273:红星照我行:1,452623739:刀剑无双6:2,453370417:花亦然Channel:1,456584977:樱与暖茶:7,474593910:超V学园_林伊Eli:12,475358810:秋津正人:1,478787830:单推不纯在D:1,482338666:超哥莫得真感情:1,487341196:好活有赏:4,494611983:一只小生物:4,498190302:我说过我叫田龙:1,507135308:联盟黄铜3:1,516425178:胖喵三兄弟:4,520136903:星墨0:1,520718005:北斗导航开启:9,522129856:从零开始的升级之旅:66,523739860:mizu-ku:3,603550258:千风208008:1
V2
