1621267201936:632715666:\NoiR/\NoiR/\NoiR/
1621267204687:24727251:\NoiR/\NoiR/\NoiR/
1621267204687:603169549:\NoiR/\NoiR/\NoiR/
1621267209271:632715666:\NoiR/\NoiR/\NoiR/
TIME0:0ONLINE293543
1621267210464:307109501:怪獣の名前は海紫米ですか？(●￣(ｴ)￣●)
1621267211536:157806:元祖！
1621267214875:551119:今天有カタオモイ 吗
1621267214875:632715666:\NoiR/\NoiR/\NoiR/
1621267216379:825:蟹蟹舰长
1621267216379:40026302:Ultraman
1621267216379:19416553:(=·ω·=)
1621267217770:307109501:蟹蟹艦長
1621267217770:2361179:蟹蟹舰长
1621267218979:339732835:蟹蟹舰长
1621267220231:825:蟹蟹关注
1621267222630:603169549:蟹蟹舰长
1621267222630:579174:【没弹好 是假的我】
1621267226040:67925575:(｀・ω・´)
1621267227114:34545692:蟹蟹
1621267227114:380086122:蟹蟹舰长
1621267227114:1555770:蟹蟹舰长
1621267227114:67196:谢谢舰长
1621267229548:632715666:蟹蟹舰长
1621267231990:1761687469:蟹蟹舰长
1621267233189:825:蟹蟹舰长们
1621267234641:15833875:蟹蟹
1621267234641:9050973:(｀・ω・´)
1621267234641:579174:【谢谢舰长】
1621267235680:21178057:谢谢舰长
1621267235680:31968919:蟹蟹
1621267236969:865097:(=・ω・=)
1621267236969:270786695:蟹蟹舰长
1621267238036:339732835:蟹蟹舰长
1621267238036:1432374:(=·ω·=)
1621267238036:244116402:蟹蟹舰长
1621267239254:307109501:蟹蟹艦長
1621267240851:825:www
1621267240851:12869156:恰比恰比
1621267242786:1946298:蟹蟹舰长们
1621267242786:579174:【那么弹一下单相思】
1621267244782:579174:【和恰比】
1621267246612:179940608:定番（）?
1621267246612:11177867:谢谢舰长
1621267249044:339732835:恰比恰比
1621267249044:307109501:草
TIME0:0ONLINE295525
1621267250170:575664:(=・ω・=)
1621267250170:1761687469:单相思好耶
1621267250170:81178294:蟹蟹舰长
1621267251374:307109501:恰
1621267251374:3288053:\NoiR/ \NoiR/ \NoiR/
1621267252573:40026302:蟹蟹舰长
1621267252573:825:\NoiR/\NoiR/\NoiR/
1621267254595:15378481:♪NoiR♪NoiR♪NoiR♪
1621267256556:825:蟹蟹舰长们
1621267256557:339732835:蟹蟹舰长
1621267259317:26002622:\NoiR/\NoiR/\NoiR/
1621267259317:177571019:\NoiR/\NoiR/\NoiR/
1621267260471:380086122:♪NoiR♪NoiR♪NoiR♪
1621267261632:3288053:\NoiR/ \NoiR/ \NoiR/
1621267261632:24750:♬NoiR♬NoiR♬NoiR♬NoiR♬NoiR♬
1621267263272:7269129:\NoiR/\NoiR/\NoiR/\NoiR/\NoiR/
1621267263272:81178294:蟹蟹舰长x2
1621267264971:1946298:\NoiR/\NoiR/\NoiR/
1621267266265:339732835:\NoiR/\NoiR/\NoiR/
1621267267536:1761687469:好听
1621267267537:34545692:\NoiR/\NoiR/\NoiR/
1621267267537:24750:♬NoiR♬NoiR♬NoiR♬NoiR♬NoiR♬
1621267268723:268490:(･∀･)
1621267268723:36150390:已经开始定番环节了
1621267268723:603169549:蟹蟹舰长们
1621267268723:26002622:\NoiR/\NoiR/\NoiR/
1621267269946:67196:♪NoiR♪NoiR♪NoiR♪
1621267269946:1555770:\NoiR/\NoiR/\NoiR/\NoiR/\NoiR/
1621267272021:3288053:\NoiR/ \NoiR/ \NoiR/
1621267273401:24750:♬NoiR♬NoiR♬NoiR♬NoiR♬NoiR♬
1621267274686:12184508:老板们大气
1621267274687:825:\NoiR/\NoiR/\NoiR/
1621267276115:15833875:\NoiR/\NoiR/\NoiR/\NoiR/\NoiR/
1621267276115:11177867:❀NoiR❀❀NoiR❀❀NoiR❀
1621267276115:170776585:(｀・ω・´)
1621267277294:339732835:\NoiR/\NoiR/\NoiR/
1621267277296:534545:\NoiR/\NoiR/\NoiR/
1621267278282:3288053:\NoiR/ \NoiR/ \NoiR/
1621267278283:67196:加班时间.ini
1621267278283:359188823:(｀・ω・´)
TIME0:1ONLINE295525
1621267280053:82604801:固定单相思
1621267280053:24750:♬NoiR♬NoiR♬NoiR♬NoiR♬NoiR♬
1621267280053:1555770:\NoiR/\NoiR/\NoiR/\NoiR/\NoiR/
1621267281306:1946298:\NoiR/\NoiR/\NoiR/
1621267281307:603169549:\NoiR/\NoiR/\NoiR/
1621267281307:15378481:♪NoiR♪NoiR♪NoiR♪
1621267283636:3288053:\NoiR/ \NoiR/ \NoiR/
1621267283637:339732835:蟹蟹舰长
1621267285124:21608624:单相思
1621267285124:825:蟹蟹舰长
1621267286272:24750:♬NoiR♬NoiR♬NoiR♬NoiR♬NoiR♬
1621267287808:339732835:\NoiR/\NoiR/\NoiR/
1621267287808:825:\NoiR/\NoiR/\NoiR/
1621267287808:34545692:\NoiR/\NoiR/\NoiR/
1621267289060:84908819:(･∀･)
1621267289086:289461176:⎛⎝≥⏝⏝≤⎠⎞NoiR⎛⎝≥⏝⏝≤⎠⎞
1621267289086:406041541:(｀・ω・´)
1621267289086:15833875:\NoiR/\NoiR/\NoiR/\NoiR/\NoiR/
1621267291293:10579112:\NoiR/ \NoiR/ \NoiR/
1621267291293:1555770:\NoiR/\NoiR/\NoiR/\NoiR/\NoiR/
1621267292301:3288053:\NoiR/ \NoiR/ \NoiR/
1621267292301:24750:♬NoiR♬NoiR♬NoiR♬NoiR♬NoiR♬
1621267293545:20005423:noir！
1621267294747:339732835:\NoiR/\NoiR/\NoiR/
1621267296363:1946298:\NoiR/\NoiR/\NoiR/
1621267296364:289461176:⎛⎝≥⏝⏝≤⎠⎞NoiR⎛⎝≥⏝⏝≤⎠⎞
1621267297988:11177867:❀NoiR❀❀NoiR❀❀NoiR❀
1621267301533:34545692:\NoiR/\NoiR/\NoiR/
1621267302752:10761571:打卡O(∩_∩)O
1621267302752:21608624:亲爱的梦想实现了吗？
1621267304739:3288053:\NoiR/ \NoiR/ \NoiR/
1621267304740:43205222:(･∀･)
1621267304740:339732835:\NoiR/\NoiR/\NoiR/
1621267305924:5185535:打卡
1621267305924:8339861:(･∀･)
1621267305924:825:8888888888888888
TIME0:1ONLINE300555
1621267308965:358483:_(:3」∠)_
1621267308965:382682160:（￣▽￣）
1621267310194:5892616:.
1621267311342:80967503:(=・ω・=)
1621267312542:3288053:\NoiR/ \NoiR/ \NoiR/
1621267312545:30514029:88888888888888888888
1621267314411:339732835:蟹蟹舰长
1621267314411:1946298:\NoiR/\NoiR/\NoiR/
1621267315591:825:蟹蟹舰长
1621267315591:3584209:o
1621267315591:15378481:♪NoiR♪NoiR♪NoiR♪
1621267316626:289461176:⎛⎝≥⏝⏝≤⎠⎞NoiR⎛⎝≥⏝⏝≤⎠⎞
1621267316626:30514029:蟹蟹舰长
1621267318199:339732835:\NoiR/\NoiR/\NoiR/
1621267318199:825:恰比恰比
1621267318199:1555770:\NoiR/\NoiR/\NoiR/\NoiR/\NoiR/
1621267322252:603169549:蟹蟹舰长
1621267323385:56456352:恰比
1621267323385:12184508:♬NoiR♬NoiR♬NoiR♬
1621267323385:25690482:晚安
1621267324537:7269129:恰比恰比
1621267324537:1907825:←◡←
1621267324538:67196:温柔版恰比
1621267324538:15833875:恰比恰比
1621267325996:22351862:0.0
1621267325996:1555770:恰比恰比~
1621267327148:289461176:恰比恰比！！
1621267327157:340637:_(:3」∠)_
1621267328386:12184508:恰比恰比
1621267328385:7452073:.
1621267328386:36150390:恰比恰比
1621267328386:632715666:蟹蟹舰长
1621267329729:82604801:抒情恰比
1621267330871:3743109:恰比恰比
1621267330871:825:優しいチャッピ！
1621267330871:20428:恰比恰比
1621267332031:103306750:恰比恰比
1621267333278:21608624:恰比恰比
1621267333278:265684508:恰比恰比~
1621267333278:591894623:晚安
1621267333278:24727251:恰比恰比
1621267334390:10579112:恰比恰比
1621267334392:2361179:恰比恰比
1621267334393:825:\NoiR/\NoiR/\NoiR/
1621267334393:11177867:一转恰比
1621267335703:103306750:蟹蟹舰长
1621267335703:30514029:12点了呀，探个头
1621267337264:289461176:noir偷笑www
1621267337264:12184508:单相思的恰比
1621267337265:3288053:\NoiR/ \NoiR/ \NoiR/
1621267337265:825:蟹蟹舰长
1621267338734:8267700:恰比恰比~
TIME0:2ONLINE300555
1621267340187:56456352:单相思恰比
1621267340187:15378481:恰~比~
1621267340187:30514029:恰比恰比
1621267340187:264832:(=・ω・=)
1621267341253:380086122:蟹蟹舰长
1621267342971:80967503:(=・ω・=)
1621267343903:632715666:\NoiR/\NoiR/\NoiR/
1621267343903:4893114:(=・ω・=)
1621267345612:3288053:\NoiR/ \NoiR/ \NoiR/
1621267346197:3288053:\NoiR/ \NoiR/ \NoiR/
1621267346197:30514029:88888888888888888888
1621267347093:1946298:\NoiR/\NoiR/\NoiR/
1621267347094:825:ん？
1621267348256:289461176:⎛⎝≥⏝⏝≤⎠⎞NoiR⎛⎝≥⏝⏝≤⎠⎞
1621267348256:339732835:www
1621267349526:15833875:\NoiR/\NoiR/\NoiR/\NoiR/\NoiR/
1621267350829:177571019:\NoiR/\NoiR/\NoiR/
1621267351227:339732835:蟹蟹舰长
1621267351227:1946298:\NoiR/\NoiR/\NoiR/
1621267352349:81178294:www
1621267352349:3677907:~
1621267352349:37280277:咪咪咪
1621267353639:632715666:\NoiR/\NoiR/\NoiR/
1621267353639:15833875:单相思恰比
1621267354687:18186:\NoiR/\NoiR/\NoiR/
1621267354687:1946298:ww
1621267354687:82604801:单相思的恰比
1621267355201:825:蟹蟹舰长
1621267355201:3584209:o
1621267355201:15378481:♪NoiR♪NoiR♪NoiR♪
1621267356034:307109501:ん？
1621267356035:12184508:♬NoiR♬NoiR♬NoiR♬
1621267356035:825:カタオモイ　チャッピ
1621267357393:21608624:单项恰比
1621267357393:67196:チャッピーの片想いｗ
1621267357393:35845107:打卡
1621267358530:339732835:\NoiR/\NoiR/\NoiR/
1621267358530:327172:(｀・ω・´)
1621267358530:3288053:www
1621267358530:34545692:Σ( ￣□￣||)
1621267359585:5523073:www
1621267359585:825:ｗｗｗ
1621267359585:37536164:wwwww
1621267359585:632715666:\NoiR/\NoiR/\NoiR/
1621267360672:15833875:wow
1621267362033:1946298:\NoiR/\NoiR/\NoiR/
1621267362033:2361179:www
1621267362033:289461176:⎛⎝≥⏝⏝≤⎠⎞NoiR⎛⎝≥⏝⏝≤⎠⎞
1621267362033:19584278:恰比恰比
1621267363712:15833875:suki
1621267363712:7269129:\NoiR/\NoiR/\NoiR/\NoiR/\NoiR/
1621267363712:6997143:wwwwww
1621267363712:15378481:www
1621267363712:307109501:DNA錯亂
1621267363712:579174:【以上就是《カタオモイなチャッピーの歌》/《单相思的恰比》】
1621267364985:12184508:wwwwwwww
1621267364985:21608624:wwwwwww
1621267366248:603169549:恰比恰比
1621267367266:15833875:\NoiR/\NoiR/\NoiR/\NoiR/\NoiR/
1621267367266:30514029:wwwwww
1621267367266:11177867:大家好 我是恰比
1621267368672:339732835:恰比恰比
1621267368672:825:8888888888888
1621267368672:26002622:恰比的单相思
1621267369777:3288053:恰比恰比
1621267369778:262126999:88888888
1621267369778:548593:\NoiR/\NoiR/\NoiR/
TIME0:2ONLINE303980
1621267370877:632715666:\NoiR/\NoiR/\NoiR/
1621267370877:1946298:我爱恰比
1621267370877:2361179:wwwwww
1621267372027:1555770:888888888888888888888888888888
1621267372027:7269129:单相思恰比
1621267372723:289461176:⎛⎝≥⏝⏝≤⎠⎞NoiR⎛⎝≥⏝⏝≤⎠⎞
1621267372723:30514029:蟹蟹舰长
1621267373064:548593:888888888888888
1621267373065:262126999:（￣▽￣）
1621267373066:103306750:8888888888
1621267373066:30514029:恰比恰比
1621267374249:2361179:8888888888888
1621267374249:1555770:wwwwwww
1621267375916:265684508:wwwwwwww
1621267375916:339732835:恰比恰比
1621267376334:339732835:\NoiR/\NoiR/\NoiR/
1621267376334:1555770:\NoiR/\NoiR/\NoiR/\NoiR/\NoiR/
1621267376334:825:恰比恰比
1621267377155:6753:恰 比恰 比
1621267377155:67196:恰比恰比
1621267377155:2023792:恰比恰比
1621267377155:82604801:恰比恰比
1621267378541:3288053:8888888888888
1621267378541:825:恰比恰比
1621267378542:642721:恰比恰比
1621267378542:30514029:88888888888888888
1621267379910:40026302:wwww
1621267379910:34545692:恰比恰比
1621267379910:140275:（￣▽￣）
1621267381237:81178294:恰比恰比
1621267381237:26910:888888888
1621267381237:31968919:88888
1621267381237:7269129:恰比恰比
1621267381237:289461176:恰比恰比
1621267381237:21608624:恰比恰比
1621267381237:555649421:恰比恰比
1621267382240:1761687469:恰比恰比
1621267382240:14975161:恰比恰比
1621267383620:339732835:恰比恰比
1621267383621:262126999:恰比恰比
1621267383621:18186:恰比恰比
1621267383621:265684508:恰比恰比~
1621267384812:245841035:恰比恰比
1621267384812:177571019:恰比恰比
1621267384812:430552726:恰比恰比
1621267384812:15378481:nya!
1621267384812:31277442:恰比恰比
1621267386043:202990:恰比
1621267386043:30514029:来个欢快点的
1621267386043:632715666:恰比恰比
1621267386043:73230:\恰比/\恰比/\恰比/\恰比/\恰比/\恰比/\恰比/
1621267387110:103306750:恰比恰比
1621267387112:15833875:恰比恰比
1621267387112:34245964:黑听来了
1621267387112:797327:\NoiR/ \NoiR/ \NoiR/
1621267387112:34545692:8888888888888
1621267388173:67196:888888888
1621267388173:6816559:恰比恰比
1621267388173:289461176:88888888888888888888
1621267388173:579174:【今天好多人呢】
1621267388173:12184508:88888888888
1621267388173:2361179:nya
1621267388173:339732835:8888888888888888
1621267388746:603169549:蟹蟹舰长
1621267389246:12431984:恰比恰比
1621267389246:748425:88888888888888
1621267389246:30514029:恰比恰比
1621267389246:11177867:8888888888888888888
1621267389246:1946298:888888888888888
1621267390385:56456352:恰比
1621267390385:12184508:♬NoiR♬NoiR♬NoiR♬
1621267390385:25690482:晚安
1621267390516:555649421:8888888888
1621267390516:82604801:88888888888888888
1621267390516:23958741:888888888
1621267391760:642721:恰比恰比
1621267391760:271471898:来了
1621267391760:569657:(=・ω・=)
1621267392749:7269129:恰比恰比
1621267392749:1907825:←◡←
1621267392749:67196:温柔版恰比
1621267392749:15833875:恰比恰比
1621267392813:6027385:8888888
1621267392813:26002622:8888888888888888
1621267392813:2562617:88888888
1621267392813:1907825:←◡←
1621267392813:2361179:88888888888
1621267392814:603169549:8888888888
1621267392814:37536164:8888888888
1621267392814:130624291:恰比恰比
1621267392814:108407672:888888
1621267394029:1761687469:恰比恰比
1621267394029:56456352:88888888888888888
1621267394029:15334395:恰比恰比
1621267394029:10346647:88888888888
1621267395188:177571019:88888888
1621267395188:103306750:88888888888888
1621267395188:564572276:88888
1621267395286:22351862:0.0
1621267395286:1555770:恰比恰比~
1621267396329:21608624:88888888888888888888
1621267396329:579174:【谢谢礼物和弹幕】
1621267396329:10579112:恰比恰比
1621267397498:632715666:888888888888
1621267397498:535164403:恰比恰比
1621267397499:4768504:8888888888888
1621267397499:13669372:8888888888888888888888
1621267398959:9540498:888888888888
TIME0:3ONLINE303980
1621267400472:56456352:30w 人气！
1621267402013:355076409:88888888
1621267403156:2022429:(°∀°)ﾉ
1621267403156:766706:8888888888
1621267403156:18094478:8888888888
1621267404342:34245964:以后每天都会这么多人的！
1621267404342:579174:【在那里的你】
1621267409504:100010704:(=・ω・=）
1621267410566:307109501:チャビ恋をしました（￣▽￣）
1621267414567:4095674:不在不在
1621267415997:289461176:恰比恰比！！
1621267415999:340637:_(:3」∠)_
1621267416248:7452073:.
1621267416248:36150390:恰比恰比
1621267416248:12184508:恰比恰比
1621267416248:632715666:蟹蟹舰长
TIME0:3ONLINE300555
1621267418007:82604801:抒情恰比
1621267418663:19606121:╮(￣▽￣)╭
1621267418922:3743109:恰比恰比
1621267418922:825:優しいチャッピ！
1621267418922:20428:恰比恰比
1621267419433:103306750:恰比恰比
1621267420339:307109501:buzai buzai
1621267421027:21608624:恰比恰比
1621267421027:265684508:恰比恰比~
1621267421027:591894623:晚安
1621267421027:24727251:恰比恰比
1621267421481:34245964:以后会越来越多的
1621267421655:10579112:恰比恰比
1621267421656:2361179:恰比恰比
1621267421656:825:\NoiR/\NoiR/\NoiR/
1621267421656:11177867:一转恰比
1621267422420:56456352:buzai
1621267422420:104031360:(･∀･)
1621267422420:825:在那边的你  
1621267422946:103306750:蟹蟹舰长
1621267422946:30514029:12点了呀，探个头
1621267423678:289461176:noir偷笑www
1621267423678:12184508:单相思的恰比
1621267423678:3288053:\NoiR/ \NoiR/ \NoiR/
1621267423678:825:蟹蟹舰长
1621267424408:8267700:恰比恰比~
1621267425146:56456352:单相思恰比
1621267425146:15378481:恰~比~
1621267425146:30514029:恰比恰比
1621267425345:12136308:(=・ω・=)
1621267425346:2023792:wwww
1621267425402:264832:(=・ω・=)
1621267426189:380086122:蟹蟹舰长
1621267426504:1555770:（￣▽￣）
1621267426940:632715666:\NoiR/\NoiR/\NoiR/
1621267426940:4893114:(=・ω・=)
1621267427559:579174:【那边那个DD】
1621267427921:3288053:\NoiR/ \NoiR/ \NoiR/
1621267428806:307109501:buzai buzai
1621267428806:14975161:生草机
1621267428806:766706:草
1621267429881:1946298:\NoiR/\NoiR/\NoiR/
1621267429881:825:ん？
1621267429969:632715666:zai
1621267429969:108407672:草
1621267429969:67196:在那里的你
1621267429969:104975083:(⌒▽⌒)
TIME0:3ONLINE304500
1621267430362:289461176:⎛⎝≥⏝⏝≤⎠⎞NoiR⎛⎝≥⏝⏝≤⎠⎞
1621267430362:339732835:www
1621267431133:56456352:buzai
1621267431133:2023792:我在这里
1621267431133:825:www
1621267431133:579174:【那边的DD】
1621267431654:15833875:\NoiR/\NoiR/\NoiR/\NoiR/\NoiR/
1621267432127:177571019:\NoiR/\NoiR/\NoiR/
1621267432881:81178294:www
1621267432881:3677907:~
1621267432881:37280277:咪咪咪
1621267433114:632715666:\NoiR/\NoiR/\NoiR/
1621267433114:15833875:单相思恰比
1621267433318:18186:\NoiR/\NoiR/\NoiR/
1621267433318:1946298:ww
1621267433318:82604801:单相思的恰比
1621267433532:766706:那边那个DD
1621267433637:307109501:ん？
1621267433637:12184508:♬NoiR♬NoiR♬NoiR♬
1621267433637:825:カタオモイ　チャッピ
1621267433878:21608624:单项恰比
1621267433878:67196:チャッピーの片想いｗ
1621267433878:35845107:打卡
1621267433926:339732835:\NoiR/\NoiR/\NoiR/
1621267433926:327172:(｀・ω・´)
1621267433926:3288053:www
1621267433927:34545692:Σ( ￣□￣||)
TIME0:3ONLINE303980
1621267434114:5523073:www
1621267434114:825:ｗｗｗ
1621267434114:37536164:wwwww
1621267434114:632715666:\NoiR/\NoiR/\NoiR/
1621267434341:15833875:wow
1621267434359:1946298:\NoiR/\NoiR/\NoiR/
1621267434359:2361179:www
1621267434359:289461176:⎛⎝≥⏝⏝≤⎠⎞NoiR⎛⎝≥⏝⏝≤⎠⎞
1621267434359:19584278:恰比恰比
1621267434512:373951:(°∀°)ﾉ
1621267434660:15833875:suki
1621267434660:7269129:\NoiR/\NoiR/\NoiR/\NoiR/\NoiR/
1621267434661:6997143:wwwwww
1621267434661:15378481:www
1621267434661:307109501:DNA錯亂
1621267434661:579174:【以上就是《カタオモイなチャッピーの歌》/《单相思的恰比》】
1621267435151:12184508:wwwwwwww
1621267435151:21608624:wwwwwww
1621267435151:603169549:恰比恰比
1621267435153:15833875:\NoiR/\NoiR/\NoiR/\NoiR/\NoiR/
1621267435153:30514029:wwwwww
1621267435153:11177867:大家好 我是恰比
1621267435154:339732835:恰比恰比
1621267435154:825:8888888888888
1621267435154:26002622:恰比的单相思
1621267435600:579174:【有关注我了嘛】
1621267435600:642721:在在在(°∀°)ﾉ
1621267435600:37326994:==
1621267435703:262126999:88888888
1621267435703:3288053:恰比恰比
1621267435703:548593:\NoiR/\NoiR/\NoiR/
1621267435704:632715666:\NoiR/\NoiR/\NoiR/
1621267435704:1946298:我爱恰比
1621267435704:2361179:wwwwww
1621267436168:1555770:888888888888888888888888888888
1621267436168:7269129:单相思恰比
1621267436170:548593:888888888888888
1621267436170:262126999:（￣▽￣）
1621267436170:103306750:8888888888
1621267436170:30514029:恰比恰比
1621267436663:2361179:8888888888888
1621267436663:1555770:wwwwwww
1621267436806:564572276:在在在
1621267437143:265684508:wwwwwwww
1621267437143:339732835:恰比恰比
1621267437392:6753:恰 比恰 比
1621267437392:67196:恰比恰比
1621267437392:2023792:恰比恰比
1621267437392:82604801:恰比恰比
1621267437687:3288053:8888888888888
1621267437687:825:恰比恰比
1621267437687:642721:恰比恰比
1621267437687:30514029:88888888888888888
1621267438263:40026302:wwww
1621267438263:34545692:恰比恰比
1621267438264:140275:（￣▽￣）
1621267438275:103306750:(｀·ω·´)
1621267438275:307109501:buzai buzai
1621267438275:6779030:はい
1621267438663:81178294:恰比恰比
1621267438663:26910:888888888
1621267438663:31968919:88888
1621267438663:7269129:恰比恰比
1621267438663:289461176:恰比恰比
1621267438663:21608624:恰比恰比
1621267438663:555649421:恰比恰比
1621267438954:1761687469:恰比恰比
1621267438954:14975161:恰比恰比
1621267439312:11177867:在
1621267439312:12184508:喂！那边的！
1621267439375:339732835:恰比恰比
1621267439375:262126999:恰比恰比
1621267439375:18186:恰比恰比
1621267439375:265684508:恰比恰比~
1621267439662:245841035:恰比恰比
1621267439662:177571019:恰比恰比
1621267439662:430552726:恰比恰比
1621267439662:15378481:nya!
1621267439662:31277442:恰比恰比
1621267439663:202990:恰比
1621267439663:30514029:来个欢快点的
1621267439663:73230:\恰比/\恰比/\恰比/\恰比/\恰比/\恰比/\恰比/
1621267439663:632715666:恰比恰比
1621267439912:103306750:恰比恰比
1621267439912:15833875:恰比恰比
1621267439912:34245964:黑听来了
1621267439912:797327:\NoiR/ \NoiR/ \NoiR/
1621267439912:34545692:8888888888888
1621267440141:67196:888888888
1621267440141:6816559:恰比恰比
1621267440141:289461176:88888888888888888888
1621267440141:579174:【今天好多人呢】
1621267440141:12184508:88888888888
1621267440141:2361179:nya
1621267440141:339732835:8888888888888888
1621267440151:12431984:恰比恰比
1621267440151:1946298:888888888888888
1621267440151:748425:88888888888888
1621267440151:11177867:8888888888888888888
1621267440151:30514029:恰比恰比
1621267440163:555649421:8888888888
1621267440163:82604801:88888888888888888
1621267440163:23958741:888888888
1621267440499:555649421:zai
1621267440902:642721:恰比恰比
1621267440902:271471898:来了
1621267440903:569657:(=・ω・=)
1621267440904:6027385:8888888
1621267440904:26002622:8888888888888888
1621267440904:2562617:88888888
1621267440904:1907825:←◡←
1621267440904:2361179:88888888888
1621267440904:603169549:8888888888
1621267440904:37536164:8888888888
1621267440904:130624291:恰比恰比
1621267440904:108407672:888888
1621267441378:1761687469:恰比恰比
1621267441378:56456352:88888888888888888
1621267441378:15334395:恰比恰比
1621267441378:10346647:88888888888
1621267441618:177571019:88888888
1621267441618:103306750:88888888888888
1621267441618:564572276:88888
1621267441620:10579112:恰比恰比
1621267441620:21608624:88888888888888888888
1621267441620:579174:【谢谢礼物和弹幕】
1621267441826:13669372:在在在
1621267441826:14975161:在
1621267441845:632715666:888888888888
1621267441845:535164403:恰比恰比
1621267441845:4768504:8888888888888
1621267441845:13669372:8888888888888888888888
1621267442091:9540498:888888888888
1621267442340:56456352:30w 人气！
1621267442342:355076409:88888888
1621267442817:2022429:(°∀°)ﾉ
1621267442817:766706:8888888888
1621267442817:18094478:8888888888
1621267442833:766706:はい
1621267443068:34245964:以后每天都会这么多人的！
1621267443068:579174:【在那里的你】
1621267444003:14764088:好耶
1621267444003:2361179:在
1621267444003:8267700:(°∀°)ﾉ
1621267444003:12184508:在在在
1621267444003:18186:在
1621267444854:100010704:(=・ω・=）
1621267445200:37536164:在
1621267445201:70829:zai
1621267445201:11177867:早就关注了
1621267445201:40026302:在
1621267445201:339732835:www
1621267445201:27636715:在在在
1621267445201:142811789:呜呜呜
1621267446283:7218098:在
1621267446283:359188823:在！
1621267446283:722824:(=・ω・=)
1621267446283:34545692:(▔□▔)/
1621267447067:307109501:チャビ恋をしました（￣▽￣）
1621267447653:289461176:在
1621267447653:579174:【NW进入了新的阶段 请多多关注我】
1621267447653:10579112:在在在
1621267447653:15334395:在在在
1621267447653:103306750:在在在
1621267448867:245841035:在在在
1621267450010:24847798:来了
1621267450010:381613996:在
1621267451081:1401338:(｀・ω・´)
1621267451081:510780270:在
1621267451081:13669372:冒头
1621267451455:4095674:不在不在
1621267452618:81178294:はい
1621267452623:632715666:（￣▽￣）
1621267454333:19606121:╮(￣▽￣)╭
1621267454652:1761687469:在
1621267454652:579174:【我一直在看评论的】
1621267456393:5107860:在
1621267456393:15833875:kkodayo
1621267456393:5112871:在
1621267457561:510780270:在
1621267457561:307109501:不在不在
1621267457561:177571019:（￣▽￣）
1621267459094:41356523:在在在
1621267459094:31277442:在
1621267460137:16071576:在
1621267460139:560349:(=・ω・=)
TIME0:4ONLINE304500
1621267461191:381613996:wwwwwwwwwww
1621267461191:8267700:喂！朋友！
1621267461207:307109501:buzai buzai
1621267461212:34245964:以后会越来越多的
1621267462218:579174:【请多多跟我说话吧 谢谢】
1621267462218:355076409:在
1621267462218:103306750:(｀·ω·´)
1621267464182:56456352:buzai
1621267464182:104031360:(･∀･)
1621267464182:825:在那边的你  
1621267464873:825:ｗｗｗ
1621267465662:12136308:(=・ω・=)
1621267465662:2023792:wwww
1621267465910:15833875:kokodayo
1621267465911:64516547:DD出水
1621267465911:1761687469:冒头
1621267467107:825:88888888888888
1621267467118:37428122:在
1621267467118:30514029:(｀・ω・´)
1621267467524:1555770:（￣▽￣）
1621267468267:579174:【那边那个DD】
1621267468479:579174:【kokodayo】
1621267469536:13460225:在
1621267469536:107647971:(=・ω・=)
1621267469536:307109501:三點幾啦
1621267469536:548593:丿
1621267470421:307109501:buzai buzai
1621267470421:14975161:生草机
1621267470421:766706:草
1621267470693:632715666:zai
1621267470693:108407672:草
1621267470693:67196:在那里的你
1621267470693:104975083:(⌒▽⌒)
1621267471180:56456352:buzai
1621267471180:825:www
1621267471180:2023792:我在这里
1621267471180:579174:【那边的DD】
1621267471605:73230:(°∀°)ﾉ
1621267471605:67196:8888888888
1621267471606:350685188:(=・ω・=)
1621267471606:2361179:88888888
1621267471606:1946298:8888888888888
1621267472686:766706:那边那个DD
1621267472714:271471898:在
1621267472714:15035921:生草机
1621267475012:564572276:在在在
1621267475012:579174:【那么谢谢大家】
1621267475013:339732835:在在在
1621267475013:21174211:888888888
1621267475013:32151921:拜拜
1621267475096:373951:(°∀°)ﾉ
1621267475468:579174:【有关注我了嘛】
1621267475468:642721:在在在(°∀°)ﾉ
1621267475468:37326994:==
1621267475887:564572276:在在在
1621267476164:31947984:_(:3」∠)_
1621267476165:766706:喂朋友！关注未阿
1621267476165:26002622:www
1621267476443:103306750:(｀·ω·´)
1621267476443:6779030:はい
1621267476443:307109501:buzai buzai
1621267476852:11177867:在
1621267476852:12184508:喂！那边的！
1621267477184:130624291:(｀・ω・´)
1621267477263:555649421:zai
1621267477664:13669372:在在在
1621267477664:14975161:在
1621267477875:766706:はい
1621267478072:14764088:好耶
1621267478072:2361179:在
1621267478072:8267700:(°∀°)ﾉ
1621267478072:12184508:在在在
1621267478072:18186:在
1621267478317:37536164:在
1621267478317:70829:zai
1621267478317:11177867:早就关注了
1621267478317:40026302:在
1621267478317:339732835:www
1621267478317:27636715:在在在
1621267478317:142811789:呜呜呜
1621267478609:7218098:在
1621267478609:359188823:在！
1621267478609:722824:(=・ω・=)
1621267478609:34545692:(▔□▔)/
1621267478814:289461176:在
1621267478815:579174:【NW进入了新的阶段 请多多关注我】
1621267478815:10579112:在在在
1621267478815:15334395:在在在
1621267478815:103306750:在在在
1621267478842:307109501:喂,三點幾啦
1621267480573:20430240:在
1621267480573:2807491:在在在
1621267480573:24727251:在
TIME0:4ONLINE304603
1621267481949:6753:在在在在
1621267481949:5523073:在在在
1621267482976:401316369:(=・ω・=)
1621267482977:3267254:在
1621267482977:494336093:在
1621267482977:49891469:(｀・ω・´)
1621267482977:36150390:こ こ だ よ
1621267484480:149310020:晚安大家
1621267484480:52123:在
1621267485539:307109501:飲茶先啦
1621267485539:534545:在
1621267485539:579174:【一直都是用おつのわーるど来结束的】
1621267486722:11888624:在在在
1621267486722:21608624:在
1621267488023:14975161:在
1621267489498:35488721:在在在
1621267490747:24750:在
1621267492193:579174:【大家准备好哦】
1621267492193:45607372:(=・ω・=)
1621267493481:901028:おつノワールど
1621267494851:324855659:在
1621267494851:451025:宰
1621267496155:24213985:prprprpr
1621267497544:579174:【好好相处】
1621267498540:3930046:ε=ε=(ノ≧∇≦)ノ
1621267498540:418025:NW 不只是liver，更是artist
1621267499618:289461176:在
1621267499618:186748:在
1621267499618:73230:山上的朋友，草里的朋友，沟里的朋友，铁窗后的朋友！
1621267500626:579174:【那么要来了】
1621267500626:33111:在在在
1621267501814:380086122:在在在
1621267501815:579174:【321】
1621267501815:303151:在
1621267502891:56456352: 好哦
1621267502891:24750:おつのわーるど
1621267505124:579174:おつのわーるど
1621267507384:3288053:おつのわーるど
1621267507384:24847798:VR朋友？
1621267508413:15378481:Д (:з    )≡:･*･おつのわーるど♪
1621267508413:13284689:在
1621267508413:2940191:在，おつのわ〜
1621267508413:825:おつのわーるど
1621267509755:13215968:朋友，好吃
1621267509755:339732835:おつのわーるど
1621267509755:270786695:おつのわーるど
1621267509755:34545692:おつのわーるど
1621267509755:12184508:おつのわるーど～～～
1621267510793:244116402:おつのわーるど
1621267510795:271471898:拜拜
1621267510795:1555770:Д (:з )≡:･*･おつのわーるど~
1621267510795:56456352:おつのわーるど
1621267510795:730671:おつのわーるど〜
1621267512079:67196:おつのわーるど
1621267512079:381613996:おつのわるーど～～
1621267512080:1466863:おつのわーるど
1621267512080:603169549:おつのわーるど〜
1621267513110:52123:おつのわーるど
1621267513111:11177867:おつのわーるど
1621267513111:81178294:おつのわーるど
1621267513111:766706:おつのわーるど
1621267513111:1458991:おつのわーるど
1621267513111:2023792:おつのわーるど
1621267514169:307109501:おつのわーるど、クマ(●￣(ｴ)￣●) 
1621267514170:2876519:おつのわーるど
1621267514170:2807491:おつのわーるど
1621267514170:289461176:おつのわーるど
1621267514170:748425:otsunoworld
1621267514170:15334395:おつのわ一るど
1621267514170:4095674:おつのわーるど
1621267514170:8772065:おつのわ〜
1621267515344:2716927:おつのわーるど
1621267515345:1946298:おつのわーるど
1621267515352:142811789:おつのわーるど
1621267515352:405378: おつのわーるど
1621267515352:6753:おつのわーるど
1621267515352:15833875:おつのわーるど
1621267515352:303151:おつのわーるど
1621267516386:265684508:おつのわーるど
1621267516387:33111:おつのわーるど
1621267516387:13991927:おつのわーるど
1621267516387:2564227:不在
1621267516387:8834636:おつのわーるど
1621267516387:6442716:おつのわーるど
1621267516387:12431984:おつのわーるど〜
1621267516387:534545:おつのわーるど
1621267517371:262126999:おつのわーるど~
1621267517373:56456352:おつのわーるど
1621267517373:41356523:おつのわーるど♪
1621267517373:8052230:OtsuNoworld(°∀°)ﾉプリン
1621267517373:20428:おつのわーるど
1621267517373:24847798:おつのワールド
1621267517373:548593:おつのわーるど~
1621267517373:2361179: おつのわーるど
1621267517373:12869156:おつのわーるど
1621267517373:244116402:おつのわーるど
1621267518407:262686:(･∀･)
1621267518407:3250181:おつのわーるど
1621267518407:37428122:おつのわーるど
1621267518407:6375299:おつのわーるど
1621267518407:642721:おつのわーるど
1621267518407:24750:888888888
1621267518407:555649421:oustNoWorld
1621267518407:423569446:おつのわーるど〜
1621267518407:4768504:おつのわーるど
1621267519568:15685633:晚安
1621267519568:7269129:otsunoworld
1621267519569:31277442:おつのわーるど
1621267519569:544064:おつのわーるど
1621267519569:13215968:おつのわーるど
1621267519569:141956:おつのわーるど
1621267519569:289461176:おつのわーるど
1621267519569:1557684:おつのわーるど
TIME0:5ONLINE304603
1621267520755:2456867:おつのわーるど
1621267520755:13669372:おつのわーるど
1621267520755:27636715:おつのわーるど
1621267520755:6254315:おつのわーるど
1621267520755:423569446:8888888888
1621267520755:440963140:おつのわーるど
1621267520755:30514029:おつのわーるど
1621267521785:579174:【拜拜晚安~】
1621267521785:6997143:(´；ω；`)
1621267521785:225094024:おつのわーるど
1621267522845:10579112:おつのわーるど
1621267522845:103306750:OtsuNoWorld
1621267522845:258890:おつのわーるど
1621267522846:74173597:888888888
1621267524126:35846260:好耶
1621267524126:67917216:おつのわーるど〜
1621267524126:45607372:88
1621267524126:616049:おつのわーるど
1621267524126:19664804:おつのわーるど
1621267524126:24750:晚安
1621267524126:3653400:おつのわーるど
1621267524126:49891469:晚安
1621267525178:26002622:Otsunoworld～
1621267525178:579174:【这里是NOIR】
1621267525179:3927288:おつのわーるど〜
1621267526536:401639515:888
1621267526537:24750:おつのわーるど
1621267526537:56456352:8888888888
1621267526537:5259909:88888888888
1621267526537:5680019:おつのわーるど〜
1621267526537:3743109:晚安
1621267526537:307109501:88888888888888
1621267526537:451025:88888
1621267526537:1761687469:晚安
1621267527509:289461176:おつのわーるど
1621267527510:21608624:晚安
1621267527510:324855659:bye-bye
1621267527510:27636715:おつのわーるど
1621267527510:339732835:888888888888
1621267527510:13991927:辛苦了 拜拜 晚安
1621267527510:5112871:8888888
1621267527510:2603350:おつのわーるど
1621267527510:399558994:.
1621267527510:19584278:おつのわーるど
1621267527510:30941288:おつのわるーど
1621267527510:579174:【明天见】
1621267528842:16071576:8888888
1621267528846:2361179:晚安~
1621267528846:10172299:おつのわーるど
1621267528846:2169788:888888
1621267528846:56456352:8888888888888888
1621267528846:225094024:拜拜
1621267529845:6254315:おつのわーるど'
1621267529845:103306750:拜拜
1621267529845:31277442:8888888888
1621267529845:13284689:晚安
1621267529845:11177867:晚安 大小姐
1621267529845:153733:拜拜 晚安
1621267529846:2562617:おつのわーるど
1621267531001:3288053:888888888
1621267531002:73230:おつのわーるどnyaaaaaaaaaaa！！！！
1621267531002:339732835:晚安
1621267531002:56456352:888888888888888888
1621267531002:392678853:拜拜拜拜~
1621267531002:6816559:888888888
1621267531002:2011456:晚安
1621267531002:103739:おつのわーるど
1621267532218:23958741:88888888
1621267532218:19664804:晚安
1621267532218:81178294:88888888888
1621267532218:1946298:晚安
1621267532218:103306750:晚安
1621267532218:179940608:拜拜
1621267532218:8267700:888888888888888
1621267532218:289422012:晚安
1621267532218:56456352:8888888888888888888
1621267533297:351975374:晚安啦
1621267533297:804438:晚安
1621267533297:289461176:おつのわーるど
1621267533298:307109501:奧茲世界!
1621267533298:12190576:otsunoworld
1621267533298:131377892:おつのわーるど
1621267534354:32151921:晚安
1621267534354:45467831:晚安
1621267534354:56456352:88888888888888888888
1621267534354:262686:晚安
1621267535431:18186:おつのわーるど～
1621267535432:7269129:888888
1621267535432:4258989:明天见！
1621267535432:130624291:おつのわーるど
1621267535432:17027510:晚安
1621267536632:67196:byebye~
1621267536632:35488721:wanan
1621267536632:6753:晚安
1621267536632:9540498:晚安
1621267537694:10925978:8888888
1621267537694:13215968:晚安
1621267537694:56456352:88888888888888888
1621267537694:4095674:晚安
1621267537694:19584278:晚安
1621267538821:10603887:奥兹的世界
1621267538822:642721:(｡･ω･｡)ﾉ♡晚安安
1621267538822:35488721:晚安
1621267538822:3250181:byebye
1621267538822:131377892:晚安
1621267538822:289461176:おつのわーるど
1621267538822:535164403:8888888888
1621267538822:56456352:888888888888888
1621267538822:155939358:晚安晚安
1621267538822:18186:晚安
TIME0:5ONLINE304557
1621267540034:384068968:8888888
1621267540034:1531129:88888888888888
1621267540034:353945226:8888888
1621267541104:348062185:晚安
1621267541104:2709718:byebye
1621267541104:14975161:辛苦大小姐，辛苦同传，辛苦大家
1621267541104:6851415:888888888888
1621267541104:616049:88888
1621267541104:447758:888888888
1621267541104:418025:晚安
1621267542208:56456352:8888888888888888
1621267542208:13443040:88888888
1621267542208:35409931:おつのわーるど
1621267543538:56456352:88888888888888
1621267543538:35488721:拜拜
1621267544616:289461176:おつのわーるど
1621267544617:81393893:888888888888
1621267544617:262855917:88888888888888888
1621267544617:56456352:888888888888888
1621267544617:262126999:888888
1621267545795:534545:晚安
1621267545795:366606288:晚安
1621267547019:20430240:8888888
1621267547019:405378:晚安
1621267548089:1638479:(〜￣△￣)〜
1621267548090:24463416:8888888
1621267548090:37054748:5
1621267548090:766706:88888888888888888888
1621267549097:357095207:おつのわーるど
1621267549097:1946298:88888888888888888
1621267550213:13443040:大晚安
1621267550213:56456352:辛苦了！
1621267550213:579174:【（附）】
1621267550214:245841035:888888888888
1621267551285:289461176:おつのわーるど
1621267551285:1761687469:辛苦同传
1621267551285:380086122:拜拜
1621267552432:221976:(°∀°)ﾉ
1621267552432:7212570:(￣3￣)
1621267553680:8413561:晚安
1621267554684:130624291:晚安辣
1621267554684:35488721:同传幸苦啦
1621267554684:603169549:同传辛苦了、中国兄貴辛苦了
1621267555852:226858196:888888
1621267556948:510780270:8888888～
1621267559293:642721:(°∀°)ﾉ
1621267559293:339732835:同传辛苦了
1621267559293:10925978:晚安
1621267560629:448158166:88888888
1621267560629:10603887:新成员？
1621267560629:67196:大家辛苦了 同传辛苦了
1621267560629:289461176:同传辛苦了，大家辛苦了
1621267560629:14789264:おつのわーるど
1621267562090:56456352:诶？刚刚的是
1621267562091:7269129:！
1621267563272:266537011:888888888
1621267564508:825:ボカロ　募集中！
1621267564508:307109501:( ♥д♥)
1621267564508:380086122:辛苦同传了
1621267565990:289461176:大小姐辛苦了
1621267566007:1946298:辛苦了
1621267566007:21806727:辛苦了
1621267566007:56456352:招募？
1621267567062:2063566:8888888888888
1621267568090:267476:辛苦了
1621267569212:14975161:大小姐辛苦，同传辛苦，大家辛苦
1621267569212:152744:8888
1621267569212:116680:8888888888888888888
1621267569212:551119:太快了吧 招募页
1621267569212:4219455:88888
1621267570259:11888624:新成员还没消息
1621267571327:47253347:大家辛苦啦，晚安晚安
1621267572484:8052230:日本兄贵ご苦労さん
1621267572484:451160778:88888888
1621267572484:359991242:888888888
TIME0:6ONLINE304557
1621267574065:1555770:大家辛苦啦~同传辛苦啦~
1621267574066:2562617:wolrd！
1621267574066:551119:一闪而过
1621267575249:36150390:各位辛苦了
1621267576477:73230:Wolrd！！！
1621267576477:56456352:要找新成员？
1621267576477:37428122:还没改
1621267578144:1761687469:主唱募集中
1621267578145:3163317:88888888
1621267579498:265684508:wolrd
1621267579499:15833875:辛苦了
1621267581346:67196:日本兄貴お疲れ
1621267581346:11177867:尝试眯眼 看看能不能把world看正
1621267581346:436852215:88888
1621267583218:33111:草w
1621267583218:265684508:还是没换
1621267583218:307109501:辛苦了辛苦了
1621267583218:289461176:日本兄贵辛苦了
1621267583218:10603887:一闪而过的新成员
1621267584399:6440115:(=・ω・=)
1621267584399:593018413:888
1621267586516:4231166:各位晚安
1621267586516:37428122:Σ( ￣□￣||)
1621267587522:45008380:(●￣(ｴ)￣●)
1621267588791:30514029:大小姐辛苦啦，同传辛苦啦，打架辛苦啦
1621267588791:398592150:辛苦啦
1621267588791:579174:辛苦了
1621267588792:730671:同传佬辛苦了～日本兄贵也辛苦了～
1621267590325:20428:wolrd!
1621267590325:155939358:。。。
1621267591484:51659296:辛苦了
1621267592500:289461176:各位no民晚安
1621267593732:730671:大家晚安
1621267594754:7269129:快去把这个改回来吧
1621267596325:3225540:啊 回来就没了
1621267596325:3767409:.
1621267596325:339732835:辛苦了~
1621267600785:67196:一闪而过的...老成员（。
1621267600785:386899051:晚安
1621267602503:81178294:辛苦了~
1621267602503:3836066:海紫米燃尽了
1621267602503:5112871:wolrd
1621267604010:26002622:wolrd   wwwwwww
1621267605244:2023792:辛苦了
1621267605244:1761687469:nowolrf才是正确的（暴言）
1621267607849:274451876:晚安
1621267607849:103306750:wolrd
TIME0:6ONLINE303009
1621267611252:73230:越南兄贵蟹蟹。
1621267611253:434662713:目を細めるとNoWorldに見えます
1621267611253:103306750:（￣▽￣）
1621267612433:3836066:等他什么时候昏迷醒了才能改
1621267615311:307109501:wwwwwww
1621267616307:2807491:wolrd www
1621267616307:15378481:www
1621267617828:825:wwww
1621267619098:1946298:www
1621267623811:1761687469:wwwww
1621267623811:7269129:www
1621267623811:632715666:oyasumi
1621267623811:11888624:眯着眼睛看就是world哈哈哈哈哈
1621267625560:579174:【眼睛眯起来就能看成world了】
1621267627345:398592150:wwwwww
1621267628447:339732835:www
1621267632943:3288053:www
1621267632943:642721:(｀・ω・´)
1621267632943:5523073:www
1621267632943:280761450:晚安各位
1621267632943:632715666:www
1621267632943:30514029:wwwwwwwww
1621267634344:15833875:ww
1621267634344:1555770:ww
1621267635567:265684508:wwwwwwwww
1621267637269:2361179:wwwwww
1621267638719:37536164:wwwwwww
1621267638719:270786695:wwwwww
1621267638719:26002622:wwwww
1621267638719:3225540:草
1621267639793:6472136:啥
1621267639793:22460464:(｀・ω・´)
1621267639794:5112871:wwwww
1621267639794:103306750:www
1621267639794:337461:(=ω=)
TIME0:7ONLINE303009
1621267641310:632715666:晚安
1621267642615:14975161:wwwww
1621267642615:17027510:wwwwwww
1621267642615:153802:wwwwwww
1621267642615:1761687469:晚安各位
1621267643614:20705528:wwww
1621267644668:357095207:wwww
1621267644669:13991927:www
1621267646245:453868746:晚安么么哒
1621267647487:289461176:wwwwwwwwwwwww
1621267648530:3225540:wwww
1621267649668:8834636:wwwww
1621267652142:5259909:晚安
1621267652142:48559:晚安
1621267652142:548593:wwwwww
1621267653192:33111:晚安
1621267653193:35488721:经典world打成wolrd
1621267653193:73230:weit wolrd！
1621267654230:3225540:おつのわーるど
1621267655254:33111:辛苦啦
1621267655254:398592150:晚安
1621267658545:8063179:晚安
1621267658545:392678853:wwwwwwwww
1621267659590:434662713:わんあん
1621267659590:75379:晚安
TIME0:7ONLINE302256
1621267661362:1555770:晚安~
1621267663035:15378481:わんあん♪
1621267663036:30514029:晚安
1621267663036:642721:www
1621267663036:632715666:辛苦了
1621267664300:1451538:hhh
1621267664301:1946298:晚安
1621267664301:825:おやのわ～いい夢を～
1621267664301:579174:【弹幕：晚安】
1621267665364:18186:晚安
1621267665364:26002622:晚安
1621267667104:20428:わんあん
1621267667108:615353:晚安
1621267667108:3743109:晚安
1621267668106:3288053:晚安
1621267668106:453868746:wwwwww
1621267668106:310168840:晚安
1621267668106:380086122:晚安
1621267669306:2807491:晚安
1621267670466:12184508:回头罚抄纸抽熊写一百遍world
1621267671895:8267700:晚安
1621267673491:35488721:晚安
1621267673492:2023792:晚安
1621267673492:13991927:晚安~
1621267674670:5112871:晚安
1621267674670:1451538:才发现wolrd
1621267677706:551198:晚安
1621267677706:3250181:晚安
1621267678827:603169549:おやのわ
1621267678828:5523073:晚安
1621267678828:355910822:晚安
1621267680940:405378:晚安
1621267680940:40026302:晚安
1621267684244:283344999:(=・ω・=)
1621267685558:642721:(｡･ω･｡)ﾉ♡ わんあんあん
1621267685559:17222421:.
1621267688847:67196:晚安
1621267688847:28965841:晚安
1621267688847:17027510:晚安
1621267690696:339732835:わんあん~
1621267690696:20430240:晚安
1621267692541:15833875:就当是故障艺术了
1621267695289:3303215:(=・ω・=)
1621267696316:17027510:同传辛苦了（￣▽￣）
1621267699254:265684508:晚安~
1621267699254:298523915:晚安
1621267700594:632715666:oyasumi
TIME0:8ONLINE302256
1621267702258:24727251:晚安
1621267704892:2487511:、
1621267708657:825:わんあん～
1621267710168:265684508:同传man辛苦了
1621267714630:262126999:晚安
1621267716476:26002622:晚安
1621267716476:642721:(｡･ω･｡)ﾉ♡大家晚安安
1621267716477:109293769:晚安
1621267718051:52123:わんあん
1621267719201:15833875:晚安
1621267719201:37428122:阿这
TIME0:8ONLINE301838
1621267720797:35529701:(=・ω・=)
1621267721856:11177867:晚安
1621267721856:6472136:晚安
1621267723219:339732835:大家晚安
1621267724921:10579112:同传辛苦了
1621267724921:579174:NW特有的残缺美（
1621267728203:7269129:晚安
1621267729209:306978205:晚安
1621267729209:627106634:晚安
1621267738493:424227607:晚安
1621267738493:103306750:晚安各位
1621267738493:40026302:同传辛苦了
1621267741120:103306750:辛苦了
1621267744206:284242871:晚安
1621267745702:8234008:晚安
1621267745702:579174:晚安晚安
TIME0:9ONLINE301838
1621267759884:11177867:同传辛苦了  晚安
1621267762692:56410247: j
1621267767151:37428122:笑死，我这边显示主播在拔腿毛
1621267769382:256134857:(｀・ω・´)
1621267772113:5321433:(｀・ω・´)
1621267778409:472818507:同传辛苦了
1621267782740:31968919:晚安
1621267782740:24750: 同传辛苦
1621267787643:923219:打卡
1621267815605:171293757:8888888
1621267816896:289461176:主播正在吸猫
1621267836203:1363415994:美女和陌生男子情不自禁 bx4,me
1621267837368:1143421224:美女和陌生男子情不自禁 bx4,me
1621267837368:1891247275:美女和陌生男子情不自禁 bx4,me
1621267878106:5821749:.
1621267882618:28717968:谢谢关注
1621268041224:1949207:打卡
1621268093772:1454602:(･∀･)
1621268182915:19235822:_(:3」∠)_
1621268232871:23770731:(｀・ω・´)
1621268263122:451224049:打卡
1621268282139:65422660:(=・ω・=)
1621268421605:160188556:打卡
1621268505240:5427379:(=ω=)
1621268516435:35213456:⁄(⁄ ⁄•⁄ω⁄•⁄ ⁄)⁄
1621268551723:5391099:(=・ω・=)
1621268592626:320246643:(^・ω・^ )
1621268654342:5149140:(°∀°)ﾉ
1621268654343:446894:(=・ω・=)
1621268680229:3053923:（ '▿ ' ）
1621268703666:12794816:(=ω=)
1621268728529:3246309:(=ω=)
1621268746628:17240308:.
1621268818610:1728860:(=ω=)
1621268843301:611469:(^・ω・^ )
1621268843301:151645645:（￣▽￣）
1621268946115:1961542:(=ω=)
1621268947949:2525314:_(:3」∠)_
1621268982213:490190228:(=・ω・=)
1621269036548:98754607:⁄(⁄ ⁄•⁄ω⁄•⁄ ⁄)⁄
1621269112299:22008497:( ´_ゝ｀)
1621269209365:42234735:_(:3」∠)_
1621269250675:13146318:(｀·ω·´)
1621269259723:352689466:.
1621269326987:7102716:(⌒▽⌒)
1621269357272:2361294:(=・ω・=)
1621269431121:295834:(●￣(ｴ)￣●)
1621269482124:167255464:(=・ω・=)
1621269908943:108687705:_(:3」∠)_
1621270095841:3707:(=・ω・=)
1621270595789:313061090:888
1621271168760:1881460:(=・ω・=)
1621271294888:32882683: (｀・ω・´)
1621271417439:2282232:(^・ω・^ )
1621271669978:3537:(^・ω・^ )
1621271818145:17059657:打卡
1621273313970:432148149:(^・ω・^ )
1621274215254:2427398:╮(￣▽￣)╭
